#  He:    Z = 2;   Atomic weight = 4.003000 g/mol ;    nominal density:   [INLINE] = 1.6640E-04 g/cm3
#         a(barns/atom) = (cm2/g)    6.64714E+00
#         E(eV) (cm2/g) = f2(e/atom)    1.05122E+07
#         1 edge. K Edge energy (keV) = 2.46000E-02
#         Relativistic correction estimate frel (H82,3/5CL) = -4.2952E-04, 0.0000E+00 e/atom
#         Nuclear Thomson correction fNT = -5.4817E-04 e/atom
#    _________________________________________________________________________________________________________
#  Form Factors, Attenuation and Scattering Cross-sections
#  Z=02, E = 0.001 - 1000 keV
#                                                             Attenuation
#    E         f1            f2                     [INLINE] (coh+inc) Coefficient    K       wavelength
#    keV       e/atom       e/atom      cm2/g       cm2/g      cm2/g          cm2/g        nm
1.01000000e-03  8.98961426e-01  0.00000000e+00  0.00000000e+00  5.12000000e-13  0.00000000e+00
1.02010000e-03  8.98947060e-01  0.00000000e+00  0.00000000e+00  5.61800000e-13  0.00000000e+00
1.03030100e-03  8.98932402e-01  0.00000000e+00  0.00000000e+00  6.16200000e-13  0.00000000e+00
1.04060400e-03  8.98917449e-01  0.00000000e+00  0.00000000e+00  6.75900000e-13  0.00000000e+00
1.05101010e-03  8.98902193e-01  0.00000000e+00  0.00000000e+00  7.41100000e-13  0.00000000e+00
1.06152010e-03  8.98886630e-01  0.00000000e+00  0.00000000e+00  8.12500000e-13  0.00000000e+00
1.07213530e-03  8.98870754e-01  0.00000000e+00  0.00000000e+00  8.90600000e-13  0.00000000e+00
1.08285670e-03  8.98854557e-01  0.00000000e+00  0.00000000e+00  9.76000000e-13  0.00000000e+00
1.09368520e-03  8.98838034e-01  0.00000000e+00  0.00000000e+00  1.06900000e-12  0.00000000e+00
1.10462210e-03  8.98821178e-01  0.00000000e+00  0.00000000e+00  1.17100000e-12  0.00000000e+00
1.11566830e-03  8.98803982e-01  0.00000000e+00  0.00000000e+00  1.28300000e-12  0.00000000e+00
1.12682500e-03  8.98786440e-01  0.00000000e+00  0.00000000e+00  1.40500000e-12  0.00000000e+00
1.13809320e-03  8.98768544e-01  0.00000000e+00  0.00000000e+00  1.53800000e-12  0.00000000e+00
1.14947410e-03  8.98750287e-01  0.00000000e+00  0.00000000e+00  1.68400000e-12  0.00000000e+00
1.16096880e-03  8.98731662e-01  0.00000000e+00  0.00000000e+00  1.84300000e-12  0.00000000e+00
1.17257850e-03  8.98712662e-01  0.00000000e+00  0.00000000e+00  2.01700000e-12  0.00000000e+00
1.18430430e-03  8.98693279e-01  0.00000000e+00  0.00000000e+00  2.20600000e-12  0.00000000e+00
1.19614730e-03  8.98673505e-01  0.00000000e+00  0.00000000e+00  2.41300000e-12  0.00000000e+00
1.20810880e-03  8.98653333e-01  0.00000000e+00  0.00000000e+00  2.63900000e-12  0.00000000e+00
1.22018990e-03  8.98632754e-01  0.00000000e+00  0.00000000e+00  2.88600000e-12  0.00000000e+00
1.23239180e-03  8.98611760e-01  0.00000000e+00  0.00000000e+00  3.15500000e-12  0.00000000e+00
1.24471570e-03  8.98590342e-01  0.00000000e+00  0.00000000e+00  3.44800000e-12  0.00000000e+00
1.25716280e-03  8.98568493e-01  0.00000000e+00  0.00000000e+00  3.76800000e-12  0.00000000e+00
1.26973440e-03  8.98546203e-01  0.00000000e+00  0.00000000e+00  4.11700000e-12  0.00000000e+00
1.28243180e-03  8.98523464e-01  0.00000000e+00  0.00000000e+00  4.49800000e-12  0.00000000e+00
1.29525610e-03  8.98500266e-01  0.00000000e+00  0.00000000e+00  4.91300000e-12  0.00000000e+00
1.30820860e-03  8.98476600e-01  0.00000000e+00  0.00000000e+00  5.36500000e-12  0.00000000e+00
1.32129070e-03  8.98452457e-01  0.00000000e+00  0.00000000e+00  5.85700000e-12  0.00000000e+00
1.33450360e-03  8.98427827e-01  0.00000000e+00  0.00000000e+00  6.39300000e-12  0.00000000e+00
1.34784860e-03  8.98402700e-01  0.00000000e+00  0.00000000e+00  6.97800000e-12  0.00000000e+00
1.36132710e-03  8.98377066e-01  0.00000000e+00  0.00000000e+00  7.61400000e-12  0.00000000e+00
1.37494030e-03  8.98350915e-01  0.00000000e+00  0.00000000e+00  8.30700000e-12  0.00000000e+00
1.38868970e-03  8.98324236e-01  0.00000000e+00  0.00000000e+00  9.06100000e-12  0.00000000e+00
1.40257660e-03  8.98297019e-01  0.00000000e+00  0.00000000e+00  9.88200000e-12  0.00000000e+00
1.41660240e-03  8.98269253e-01  0.00000000e+00  0.00000000e+00  1.07700000e-11  0.00000000e+00
1.43076840e-03  8.98240926e-01  0.00000000e+00  0.00000000e+00  1.17500000e-11  0.00000000e+00
1.44507600e-03  8.98212027e-01  0.00000000e+00  0.00000000e+00  1.28000000e-11  0.00000000e+00
1.45952680e-03  8.98182545e-01  0.00000000e+00  0.00000000e+00  1.39500000e-11  0.00000000e+00
1.47412200e-03  8.98152468e-01  0.00000000e+00  0.00000000e+00  1.52000000e-11  0.00000000e+00
1.48886320e-03  8.98121784e-01  0.00000000e+00  0.00000000e+00  1.65600000e-11  0.00000000e+00
1.50375190e-03  8.98090480e-01  0.00000000e+00  0.00000000e+00  1.80400000e-11  0.00000000e+00
1.51878940e-03  8.98058544e-01  0.00000000e+00  0.00000000e+00  1.96400000e-11  0.00000000e+00
1.53397720e-03  8.98025963e-01  0.00000000e+00  0.00000000e+00  2.13900000e-11  0.00000000e+00
1.54931700e-03  8.97992725e-01  0.00000000e+00  0.00000000e+00  2.32800000e-11  0.00000000e+00
1.56481020e-03  8.97958814e-01  0.00000000e+00  0.00000000e+00  2.53400000e-11  0.00000000e+00
1.58045820e-03  8.97924219e-01  0.00000000e+00  0.00000000e+00  2.75700000e-11  0.00000000e+00
1.59626280e-03  8.97888925e-01  0.00000000e+00  0.00000000e+00  3.00000000e-11  0.00000000e+00
1.61222540e-03  8.97852918e-01  0.00000000e+00  0.00000000e+00  3.26300000e-11  0.00000000e+00
1.62834770e-03  8.97816183e-01  0.00000000e+00  0.00000000e+00  3.54900000e-11  0.00000000e+00
1.64463110e-03  8.97778706e-01  0.00000000e+00  0.00000000e+00  3.85900000e-11  0.00000000e+00
1.66107740e-03  8.97740472e-01  0.00000000e+00  0.00000000e+00  4.19500000e-11  0.00000000e+00
1.67768820e-03  8.97701464e-01  0.00000000e+00  0.00000000e+00  4.56000000e-11  0.00000000e+00
1.69446500e-03  8.97661668e-01  0.00000000e+00  0.00000000e+00  4.95600000e-11  0.00000000e+00
1.71140970e-03  8.97621068e-01  0.00000000e+00  0.00000000e+00  5.38500000e-11  0.00000000e+00
1.72852380e-03  8.97579647e-01  0.00000000e+00  0.00000000e+00  5.85000000e-11  0.00000000e+00
1.74580900e-03  8.97537388e-01  0.00000000e+00  0.00000000e+00  6.35400000e-11  0.00000000e+00
1.76326710e-03  8.97494274e-01  0.00000000e+00  0.00000000e+00  6.90100000e-11  0.00000000e+00
1.78089970e-03  8.97450288e-01  0.00000000e+00  0.00000000e+00  7.49300000e-11  0.00000000e+00
1.79870870e-03  8.97405413e-01  0.00000000e+00  0.00000000e+00  8.13400000e-11  0.00000000e+00
1.81669580e-03  8.97359629e-01  0.00000000e+00  0.00000000e+00  8.82900000e-11  0.00000000e+00
1.83486270e-03  8.97312919e-01  0.00000000e+00  0.00000000e+00  9.58100000e-11  0.00000000e+00
1.85321130e-03  8.97265264e-01  0.00000000e+00  0.00000000e+00  1.04000000e-10  0.00000000e+00
1.87174340e-03  8.97216644e-01  0.00000000e+00  0.00000000e+00  1.12800000e-10  0.00000000e+00
1.89046080e-03  8.97167040e-01  0.00000000e+00  0.00000000e+00  1.22300000e-10  0.00000000e+00
1.90936540e-03  8.97116432e-01  0.00000000e+00  0.00000000e+00  1.32600000e-10  0.00000000e+00
1.92845900e-03  8.97064799e-01  0.00000000e+00  0.00000000e+00  1.43800000e-10  0.00000000e+00
1.94774360e-03  8.97012120e-01  0.00000000e+00  0.00000000e+00  1.55900000e-10  0.00000000e+00
1.96722100e-03  8.96958374e-01  0.00000000e+00  0.00000000e+00  1.69000000e-10  0.00000000e+00
1.98689320e-03  8.96903539e-01  0.00000000e+00  0.00000000e+00  1.83100000e-10  0.00000000e+00
2.00676210e-03  8.96847594e-01  0.00000000e+00  0.00000000e+00  1.98400000e-10  0.00000000e+00
2.02682970e-03  8.96790514e-01  0.00000000e+00  0.00000000e+00  2.14900000e-10  0.00000000e+00
2.04709800e-03  8.96732278e-01  0.00000000e+00  0.00000000e+00  2.32700000e-10  0.00000000e+00
2.06756900e-03  8.96672861e-01  0.00000000e+00  0.00000000e+00  2.52000000e-10  0.00000000e+00
2.08824460e-03  8.96612240e-01  0.00000000e+00  0.00000000e+00  2.72900000e-10  0.00000000e+00
2.10912710e-03  8.96550389e-01  0.00000000e+00  0.00000000e+00  2.95400000e-10  0.00000000e+00
2.13021830e-03  8.96487284e-01  0.00000000e+00  0.00000000e+00  3.19700000e-10  0.00000000e+00
2.15152050e-03  8.96422898e-01  0.00000000e+00  0.00000000e+00  3.45900000e-10  0.00000000e+00
2.17303570e-03  8.96357207e-01  0.00000000e+00  0.00000000e+00  3.74200000e-10  0.00000000e+00
2.19476600e-03  8.96290182e-01  0.00000000e+00  0.00000000e+00  4.04800000e-10  0.00000000e+00
2.21671360e-03  8.96221796e-01  0.00000000e+00  0.00000000e+00  4.37800000e-10  0.00000000e+00
2.23888080e-03  8.96152023e-01  0.00000000e+00  0.00000000e+00  4.73400000e-10  0.00000000e+00
2.26126950e-03  8.96080832e-01  0.00000000e+00  0.00000000e+00  5.11800000e-10  0.00000000e+00
2.28388220e-03  8.96008196e-01  0.00000000e+00  0.00000000e+00  5.53200000e-10  0.00000000e+00
2.30672100e-03  8.95934084e-01  0.00000000e+00  0.00000000e+00  5.97900000e-10  0.00000000e+00
2.32978820e-03  8.95858467e-01  0.00000000e+00  0.00000000e+00  6.46100000e-10  0.00000000e+00
2.35308610e-03  8.95781312e-01  0.00000000e+00  0.00000000e+00  6.98000000e-10  0.00000000e+00
2.37661690e-03  8.95702590e-01  0.00000000e+00  0.00000000e+00  7.53900000e-10  0.00000000e+00
2.40038310e-03  8.95622266e-01  0.00000000e+00  0.00000000e+00  8.14300000e-10  0.00000000e+00
2.42438690e-03  8.95540310e-01  0.00000000e+00  0.00000000e+00  8.79200000e-10  0.00000000e+00
2.44863070e-03  8.95456686e-01  0.00000000e+00  0.00000000e+00  9.49200000e-10  0.00000000e+00
2.47311700e-03  8.95371361e-01  0.00000000e+00  0.00000000e+00  1.02500000e-09  0.00000000e+00
2.49784810e-03  8.95284299e-01  0.00000000e+00  0.00000000e+00  1.10600000e-09  0.00000000e+00
2.52282660e-03  8.95195465e-01  0.00000000e+00  0.00000000e+00  1.19300000e-09  0.00000000e+00
2.54805480e-03  8.95104822e-01  0.00000000e+00  0.00000000e+00  1.28700000e-09  0.00000000e+00
2.57353540e-03  8.95012333e-01  0.00000000e+00  0.00000000e+00  1.38800000e-09  0.00000000e+00
2.59927070e-03  8.94917960e-01  0.00000000e+00  0.00000000e+00  1.49700000e-09  0.00000000e+00
2.62526340e-03  8.94821664e-01  0.00000000e+00  0.00000000e+00  1.61500000e-09  0.00000000e+00
2.65151600e-03  8.94723405e-01  0.00000000e+00  0.00000000e+00  1.74100000e-09  0.00000000e+00
2.67803110e-03  8.94623143e-01  0.00000000e+00  0.00000000e+00  1.87600000e-09  0.00000000e+00
2.70481140e-03  8.94520836e-01  0.00000000e+00  0.00000000e+00  2.02200000e-09  0.00000000e+00
2.73185950e-03  8.94416441e-01  0.00000000e+00  0.00000000e+00  2.17900000e-09  0.00000000e+00
2.75917810e-03  8.94309917e-01  0.00000000e+00  0.00000000e+00  2.34700000e-09  0.00000000e+00
2.78676980e-03  8.94201217e-01  0.00000000e+00  0.00000000e+00  2.52800000e-09  0.00000000e+00
2.81463750e-03  8.94090298e-01  0.00000000e+00  0.00000000e+00  2.72300000e-09  0.00000000e+00
2.84278380e-03  8.93977114e-01  0.00000000e+00  0.00000000e+00  2.93200000e-09  0.00000000e+00
2.87121160e-03  8.93861617e-01  0.00000000e+00  0.00000000e+00  3.15700000e-09  0.00000000e+00
2.89992370e-03  8.93743759e-01  0.00000000e+00  0.00000000e+00  3.39800000e-09  0.00000000e+00
2.92892290e-03  8.93623491e-01  0.00000000e+00  0.00000000e+00  3.65700000e-09  0.00000000e+00
2.95821210e-03  8.93500764e-01  0.00000000e+00  0.00000000e+00  3.93500000e-09  0.00000000e+00
2.98779420e-03  8.93375525e-01  0.00000000e+00  0.00000000e+00  4.23300000e-09  0.00000000e+00
3.01767220e-03  8.93247723e-01  0.00000000e+00  0.00000000e+00  4.55300000e-09  0.00000000e+00
3.04784880e-03  8.93117304e-01  0.00000000e+00  0.00000000e+00  4.89700000e-09  0.00000000e+00
3.07832730e-03  8.92984214e-01  0.00000000e+00  0.00000000e+00  5.26500000e-09  0.00000000e+00
3.10911050e-03  8.92848396e-01  0.00000000e+00  0.00000000e+00  5.66100000e-09  0.00000000e+00
3.14020160e-03  8.92709794e-01  0.00000000e+00  0.00000000e+00  6.08500000e-09  0.00000000e+00
3.17160360e-03  8.92568351e-01  0.00000000e+00  0.00000000e+00  6.54000000e-09  0.00000000e+00
3.20331960e-03  8.92424005e-01  0.00000000e+00  0.00000000e+00  7.02700000e-09  0.00000000e+00
3.23535280e-03  8.92276697e-01  0.00000000e+00  0.00000000e+00  7.54900000e-09  0.00000000e+00
3.26770630e-03  8.92126364e-01  0.00000000e+00  0.00000000e+00  8.10900000e-09  0.00000000e+00
3.30038330e-03  8.91972943e-01  0.00000000e+00  0.00000000e+00  8.70900000e-09  0.00000000e+00
3.33338710e-03  8.91816369e-01  0.00000000e+00  0.00000000e+00  9.35200000e-09  0.00000000e+00
3.36672100e-03  8.91656576e-01  0.00000000e+00  0.00000000e+00  1.00400000e-08  0.00000000e+00
3.40038810e-03  8.91493496e-01  0.00000000e+00  0.00000000e+00  1.07800000e-08  0.00000000e+00
3.43439200e-03  8.91327060e-01  0.00000000e+00  0.00000000e+00  1.15700000e-08  0.00000000e+00
3.46873590e-03  8.91157198e-01  0.00000000e+00  0.00000000e+00  1.24100000e-08  0.00000000e+00
3.50342320e-03  8.90983836e-01  0.00000000e+00  0.00000000e+00  1.33200000e-08  0.00000000e+00
3.53845740e-03  8.90806902e-01  0.00000000e+00  0.00000000e+00  1.42900000e-08  0.00000000e+00
3.57384190e-03  8.90626320e-01  0.00000000e+00  0.00000000e+00  1.53200000e-08  0.00000000e+00
3.60958030e-03  8.90442012e-01  0.00000000e+00  0.00000000e+00  1.64300000e-08  0.00000000e+00
3.64567610e-03  8.90253900e-01  0.00000000e+00  0.00000000e+00  1.76200000e-08  0.00000000e+00
3.68213280e-03  8.90061903e-01  0.00000000e+00  0.00000000e+00  1.88800000e-08  0.00000000e+00
3.71895410e-03  8.89865939e-01  0.00000000e+00  0.00000000e+00  2.02400000e-08  0.00000000e+00
3.75614360e-03  8.89665923e-01  0.00000000e+00  0.00000000e+00  2.16900000e-08  0.00000000e+00
3.79370500e-03  8.89461770e-01  0.00000000e+00  0.00000000e+00  2.32400000e-08  0.00000000e+00
3.83164200e-03  8.89253391e-01  0.00000000e+00  0.00000000e+00  2.48900000e-08  0.00000000e+00
3.86995840e-03  8.89040696e-01  0.00000000e+00  0.00000000e+00  2.66600000e-08  0.00000000e+00
3.90865800e-03  8.88823593e-01  0.00000000e+00  0.00000000e+00  2.85500000e-08  0.00000000e+00
3.94774450e-03  8.88601989e-01  0.00000000e+00  0.00000000e+00  3.05700000e-08  0.00000000e+00
3.98722190e-03  8.88375786e-01  0.00000000e+00  0.00000000e+00  3.27300000e-08  0.00000000e+00
4.02709410e-03  8.88144887e-01  0.00000000e+00  0.00000000e+00  3.50300000e-08  0.00000000e+00
4.06736500e-03  8.87909190e-01  0.00000000e+00  0.00000000e+00  3.74900000e-08  0.00000000e+00
4.10803860e-03  8.87668593e-01  0.00000000e+00  0.00000000e+00  4.01100000e-08  0.00000000e+00
4.14911890e-03  8.87422991e-01  0.00000000e+00  0.00000000e+00  4.29100000e-08  0.00000000e+00
4.19061010e-03  8.87172275e-01  0.00000000e+00  0.00000000e+00  4.59000000e-08  0.00000000e+00
4.23251620e-03  8.86916336e-01  0.00000000e+00  0.00000000e+00  4.90800000e-08  0.00000000e+00
4.27484130e-03  8.86655061e-01  0.00000000e+00  0.00000000e+00  5.24800000e-08  0.00000000e+00
4.31758960e-03  8.86388334e-01  0.00000000e+00  0.00000000e+00  5.61100000e-08  0.00000000e+00
4.36076550e-03  8.86116038e-01  0.00000000e+00  0.00000000e+00  5.99800000e-08  0.00000000e+00
4.40437310e-03  8.85838052e-01  0.00000000e+00  0.00000000e+00  6.41000000e-08  0.00000000e+00
4.44841680e-03  8.85554252e-01  0.00000000e+00  0.00000000e+00  6.84900000e-08  0.00000000e+00
4.49290090e-03  8.85264512e-01  0.00000000e+00  0.00000000e+00  7.31800000e-08  0.00000000e+00
4.53782990e-03  8.84968703e-01  0.00000000e+00  0.00000000e+00  7.81700000e-08  0.00000000e+00
4.58320820e-03  8.84666692e-01  0.00000000e+00  0.00000000e+00  8.34800000e-08  0.00000000e+00
4.62904020e-03  8.84358344e-01  0.00000000e+00  0.00000000e+00  8.91500000e-08  0.00000000e+00
4.67533060e-03  8.84043520e-01  0.00000000e+00  0.00000000e+00  9.51800000e-08  0.00000000e+00
4.72208380e-03  8.83722078e-01  0.00000000e+00  0.00000000e+00  1.01600000e-07  0.00000000e+00
4.76930460e-03  8.83393874e-01  0.00000000e+00  0.00000000e+00  1.08400000e-07  0.00000000e+00
4.81699760e-03  8.83058758e-01  0.00000000e+00  0.00000000e+00  1.15700000e-07  0.00000000e+00
4.86516750e-03  8.82716578e-01  0.00000000e+00  0.00000000e+00  1.23500000e-07  0.00000000e+00
4.91381920e-03  8.82367178e-01  0.00000000e+00  0.00000000e+00  1.31700000e-07  0.00000000e+00
4.96295730e-03  8.82010399e-01  0.00000000e+00  0.00000000e+00  1.40500000e-07  0.00000000e+00
5.01258680e-03  8.81646077e-01  0.00000000e+00  0.00000000e+00  1.49800000e-07  0.00000000e+00
5.06271270e-03  8.81274045e-01  0.00000000e+00  0.00000000e+00  1.59700000e-07  0.00000000e+00
5.11333970e-03  8.80894131e-01  0.00000000e+00  0.00000000e+00  1.70300000e-07  0.00000000e+00
5.16447310e-03  8.80506160e-01  0.00000000e+00  0.00000000e+00  1.81500000e-07  0.00000000e+00
5.21611780e-03  8.80109951e-01  0.00000000e+00  0.00000000e+00  1.93500000e-07  0.00000000e+00
5.26827890e-03  8.79705321e-01  0.00000000e+00  0.00000000e+00  2.06100000e-07  0.00000000e+00
5.32096160e-03  8.79292080e-01  0.00000000e+00  0.00000000e+00  2.19600000e-07  0.00000000e+00
5.37417120e-03  8.78870035e-01  0.00000000e+00  0.00000000e+00  2.33900000e-07  0.00000000e+00
5.42791290e-03  8.78438989e-01  0.00000000e+00  0.00000000e+00  2.49100000e-07  0.00000000e+00
5.48219190e-03  8.77998737e-01  0.00000000e+00  0.00000000e+00  2.65300000e-07  0.00000000e+00
5.53701380e-03  8.77549071e-01  0.00000000e+00  0.00000000e+00  2.82500000e-07  0.00000000e+00
5.59238390e-03  8.77089778e-01  0.00000000e+00  0.00000000e+00  3.00700000e-07  0.00000000e+00
5.64830770e-03  8.76620640e-01  0.00000000e+00  0.00000000e+00  3.20000000e-07  0.00000000e+00
5.70479070e-03  8.76141431e-01  0.00000000e+00  0.00000000e+00  3.40600000e-07  0.00000000e+00
5.76183850e-03  8.75651922e-01  0.00000000e+00  0.00000000e+00  3.62400000e-07  0.00000000e+00
5.81945690e-03  8.75151877e-01  0.00000000e+00  0.00000000e+00  3.85500000e-07  0.00000000e+00
5.87765140e-03  8.74641054e-01  0.00000000e+00  0.00000000e+00  4.10000000e-07  0.00000000e+00
5.93642780e-03  8.74119205e-01  0.00000000e+00  0.00000000e+00  4.36000000e-07  0.00000000e+00
5.99579210e-03  8.73586076e-01  0.00000000e+00  0.00000000e+00  4.63700000e-07  0.00000000e+00
6.05574990e-03  8.73041404e-01  0.00000000e+00  0.00000000e+00  4.92900000e-07  0.00000000e+00
6.11630740e-03  8.72484924e-01  0.00000000e+00  0.00000000e+00  5.24000000e-07  0.00000000e+00
6.17747040e-03  8.71916359e-01  0.00000000e+00  0.00000000e+00  5.56800000e-07  0.00000000e+00
6.23924500e-03  8.71335427e-01  0.00000000e+00  0.00000000e+00  5.91700000e-07  0.00000000e+00
6.30163740e-03  8.70741840e-01  0.00000000e+00  0.00000000e+00  6.28700000e-07  0.00000000e+00
6.36465370e-03  8.70135300e-01  0.00000000e+00  0.00000000e+00  6.67800000e-07  0.00000000e+00
6.42830020e-03  8.69515501e-01  0.00000000e+00  0.00000000e+00  7.09300000e-07  0.00000000e+00
6.49258320e-03  8.68882131e-01  0.00000000e+00  0.00000000e+00  7.53200000e-07  0.00000000e+00
6.55750890e-03  8.68234869e-01  0.00000000e+00  0.00000000e+00  7.99700000e-07  0.00000000e+00
6.62308400e-03  8.67573383e-01  0.00000000e+00  0.00000000e+00  8.49000000e-07  0.00000000e+00
6.68931470e-03  8.66897334e-01  0.00000000e+00  0.00000000e+00  9.01100000e-07  0.00000000e+00
6.75620780e-03  8.66206374e-01  0.00000000e+00  0.00000000e+00  9.56300000e-07  0.00000000e+00
6.82376980e-03  8.65500145e-01  0.00000000e+00  0.00000000e+00  1.01500000e-06  0.00000000e+00
6.89200750e-03  8.64778278e-01  0.00000000e+00  0.00000000e+00  1.07700000e-06  0.00000000e+00
6.96092750e-03  8.64040396e-01  0.00000000e+00  0.00000000e+00  1.14200000e-06  0.00000000e+00
7.03053670e-03  8.63286109e-01  0.00000000e+00  0.00000000e+00  1.21100000e-06  0.00000000e+00
7.10084200e-03  8.62515018e-01  0.00000000e+00  0.00000000e+00  1.28400000e-06  0.00000000e+00
7.17185030e-03  8.61726711e-01  0.00000000e+00  0.00000000e+00  1.36200000e-06  0.00000000e+00
7.24356880e-03  8.60920767e-01  0.00000000e+00  0.00000000e+00  1.44300000e-06  0.00000000e+00
7.31600440e-03  8.60096749e-01  0.00000000e+00  0.00000000e+00  1.53000000e-06  0.00000000e+00
7.38916440e-03  8.59254212e-01  0.00000000e+00  0.00000000e+00  1.62100000e-06  0.00000000e+00
