#  N:    Z = 7;   Atomic weight = 14.00670 g/mol ;    nominal density:   [INLINE] = 1.1650E-03 g/cm3
#         a(barns/atom) = (cm2/g)    2.32587E+01
#         E(eV) (cm2/g) = f2(e/atom)    3.00430E+06
#         4 edges. Edge energies (keV):
# K      4.01600E-01  L I    2.63100E-02  L II   9.20000E-03  L III  9.20000E-03
#         Relativistic correction estimate frel (H82,3/5CL) = -5.7982E-03, -3.0000E-03 e/atom
#         Nuclear Thomson correction fNT = -1.9191E-03 e/atom
#    _________________________________________________________________________________________________________
#  Form Factors, Attenuation and Scattering Cross-sections
#  Z=07, E = 0.001 - 1000 keV
#                                                             Attenuation
#    E         f1            f2                     [INLINE] (coh+inc) Coefficient    K       wavelength
#    keV       e/atom       e/atom      cm2/g       cm2/g      cm2/g          cm2/g        nm
1.01000000e-03  1.41003987e+00  3.21810000e-04  9.57230000e+02  4.61600000e-08  0.00000000e+00
1.02010000e-03  1.40996301e+00  3.21930000e-04  9.48130000e+02  4.89700000e-08  0.00000000e+00
1.03030100e-03  1.40983091e+00  3.22060000e-04  9.39120000e+02  5.19300000e-08  0.00000000e+00
1.04060400e-03  1.40967954e+00  3.22200000e-04  9.30200000e+02  5.50700000e-08  0.00000000e+00
1.05101010e-03  1.40951542e+00  3.22330000e-04  9.21370000e+02  5.83900000e-08  0.00000000e+00
1.06152010e-03  1.40934156e+00  3.22460000e-04  9.12630000e+02  6.19100000e-08  0.00000000e+00
1.07213530e-03  1.40915959e+00  3.22600000e-04  9.03970000e+02  6.56300000e-08  0.00000000e+00
1.08285670e-03  1.40897046e+00  3.22730000e-04  8.95400000e+02  6.95600000e-08  0.00000000e+00
1.09368520e-03  1.40877477e+00  3.22870000e-04  8.86920000e+02  7.37300000e-08  0.00000000e+00
1.10462210e-03  1.40857290e+00  3.23010000e-04  8.78520000e+02  7.81300000e-08  0.00000000e+00
1.11566830e-03  1.40836511e+00  3.23160000e-04  8.70200000e+02  8.27800000e-08  0.00000000e+00
1.12682500e-03  1.40815155e+00  3.23300000e-04  8.61970000e+02  8.77000000e-08  0.00000000e+00
1.13809320e-03  1.40793233e+00  3.23440000e-04  8.53810000e+02  9.29100000e-08  0.00000000e+00
1.14947410e-03  1.40770749e+00  3.23590000e-04  8.45740000e+02  9.84100000e-08  0.00000000e+00
1.16096880e-03  1.40747706e+00  3.23740000e-04  8.37750000e+02  1.04200000e-07  0.00000000e+00
1.17257850e-03  1.40724103e+00  3.23890000e-04  8.29840000e+02  1.10400000e-07  0.00000000e+00
1.18430430e-03  1.40699939e+00  3.24040000e-04  8.22010000e+02  1.16900000e-07  0.00000000e+00
1.19614730e-03  1.40675208e+00  3.24190000e-04  8.14250000e+02  1.23700000e-07  0.00000000e+00
1.20810880e-03  1.40649907e+00  3.24350000e-04  8.06570000e+02  1.31000000e-07  0.00000000e+00
1.22018990e-03  1.40624028e+00  3.24500000e-04  7.98970000e+02  1.38600000e-07  0.00000000e+00
1.23239180e-03  1.40597565e+00  3.24660000e-04  7.91450000e+02  1.46700000e-07  0.00000000e+00
1.24471570e-03  1.40570509e+00  3.24820000e-04  7.84000000e+02  1.55200000e-07  0.00000000e+00
1.25716280e-03  1.40542853e+00  3.24980000e-04  7.76620000e+02  1.64300000e-07  0.00000000e+00
1.26973440e-03  1.40514585e+00  3.25140000e-04  7.69320000e+02  1.73800000e-07  0.00000000e+00
1.28243180e-03  1.40485698e+00  3.25310000e-04  7.62090000e+02  1.83800000e-07  0.00000000e+00
1.29525610e-03  1.40456179e+00  3.25480000e-04  7.54930000e+02  1.94400000e-07  0.00000000e+00
1.30820860e-03  1.40426019e+00  3.25640000e-04  7.47840000e+02  2.05600000e-07  0.00000000e+00
1.32129070e-03  1.40395206e+00  3.25810000e-04  7.40820000e+02  2.17400000e-07  0.00000000e+00
1.33450360e-03  1.40363728e+00  3.25990000e-04  7.33880000e+02  2.29900000e-07  0.00000000e+00
1.34784860e-03  1.40331572e+00  3.26160000e-04  7.27000000e+02  2.43100000e-07  0.00000000e+00
1.36132710e-03  1.40298727e+00  3.26340000e-04  7.20190000e+02  2.56900000e-07  0.00000000e+00
1.37494030e-03  1.40265178e+00  3.26520000e-04  7.13450000e+02  2.71600000e-07  0.00000000e+00
1.38868970e-03  1.40230913e+00  3.26700000e-04  7.06770000e+02  2.87000000e-07  0.00000000e+00
1.40257660e-03  1.40195918e+00  3.26880000e-04  7.00170000e+02  3.03300000e-07  0.00000000e+00
1.41660240e-03  1.40160177e+00  3.27060000e-04  6.93620000e+02  3.20500000e-07  0.00000000e+00
1.43076840e-03  1.40123677e+00  3.27250000e-04  6.87150000e+02  3.38600000e-07  0.00000000e+00
1.44507600e-03  1.40086403e+00  3.27440000e-04  6.80740000e+02  3.57600000e-07  0.00000000e+00
1.45952680e-03  1.40048338e+00  3.27630000e-04  6.74390000e+02  3.77700000e-07  0.00000000e+00
1.47412200e-03  1.40009467e+00  3.27820000e-04  6.68100000e+02  3.98900000e-07  0.00000000e+00
1.48886320e-03  1.39969773e+00  3.28010000e-04  6.61880000e+02  4.21300000e-07  0.00000000e+00
1.50375190e-03  1.39929241e+00  3.28210000e-04  6.55720000e+02  4.44800000e-07  0.00000000e+00
1.51878940e-03  1.39887852e+00  3.28410000e-04  6.49620000e+02  4.69600000e-07  0.00000000e+00
1.53397720e-03  1.39845589e+00  3.28610000e-04  6.43590000e+02  4.95700000e-07  0.00000000e+00
1.54931700e-03  1.39802434e+00  3.28810000e-04  6.37610000e+02  5.23200000e-07  0.00000000e+00
1.56481020e-03  1.39758369e+00  3.29020000e-04  6.31690000e+02  5.52200000e-07  0.00000000e+00
1.58045820e-03  1.39713375e+00  3.29230000e-04  6.25830000e+02  5.82700000e-07  0.00000000e+00
1.59626280e-03  1.39667431e+00  3.29440000e-04  6.20030000e+02  6.14800000e-07  0.00000000e+00
1.61222540e-03  1.39620520e+00  3.29650000e-04  6.14290000e+02  6.48700000e-07  0.00000000e+00
1.62834770e-03  1.39572619e+00  3.29870000e-04  6.08600000e+02  6.84300000e-07  0.00000000e+00
1.64463110e-03  1.39523709e+00  3.30090000e-04  6.02980000e+02  7.21800000e-07  0.00000000e+00
1.66107740e-03  1.39473769e+00  3.30310000e-04  5.97410000e+02  7.61200000e-07  0.00000000e+00
1.67768820e-03  1.39422775e+00  3.30530000e-04  5.91890000e+02  8.02700000e-07  0.00000000e+00
1.69446500e-03  1.39370707e+00  3.30750000e-04  5.86430000e+02  8.46400000e-07  0.00000000e+00
1.71140970e-03  1.39317541e+00  3.30980000e-04  5.81020000e+02  8.92300000e-07  0.00000000e+00
1.72852380e-03  1.39263254e+00  3.31210000e-04  5.75670000e+02  9.40600000e-07  0.00000000e+00
1.74580900e-03  1.39207822e+00  3.31440000e-04  5.70370000e+02  9.91500000e-07  0.00000000e+00
1.76326710e-03  1.39151221e+00  3.31680000e-04  5.65130000e+02  1.04500000e-06  0.00000000e+00
1.78089970e-03  1.39093425e+00  3.31920000e-04  5.59930000e+02  1.10100000e-06  0.00000000e+00
1.79870870e-03  1.39034409e+00  3.32160000e-04  5.54790000e+02  1.16000000e-06  0.00000000e+00
1.81669580e-03  1.38974147e+00  3.32400000e-04  5.49700000e+02  1.22200000e-06  0.00000000e+00
1.83486270e-03  1.38912612e+00  3.32650000e-04  5.44660000e+02  1.28800000e-06  0.00000000e+00
1.85321130e-03  1.38849776e+00  3.32900000e-04  5.39670000e+02  1.35600000e-06  0.00000000e+00
1.87174340e-03  1.38785612e+00  3.33150000e-04  5.34740000e+02  1.42900000e-06  0.00000000e+00
1.89046080e-03  1.38720089e+00  3.33410000e-04  5.29850000e+02  1.50400000e-06  0.00000000e+00
1.90936540e-03  1.38653180e+00  3.33670000e-04  5.25010000e+02  1.58400000e-06  0.00000000e+00
1.92845900e-03  1.38584853e+00  3.33930000e-04  5.20220000e+02  1.66800000e-06  0.00000000e+00
1.94774360e-03  1.38515078e+00  3.34190000e-04  5.15470000e+02  1.75600000e-06  0.00000000e+00
1.96722100e-03  1.38443823e+00  3.34460000e-04  5.10780000e+02  1.84800000e-06  0.00000000e+00
1.98689320e-03  1.38371056e+00  3.34730000e-04  5.06130000e+02  1.94500000e-06  0.00000000e+00
2.00676210e-03  1.38296743e+00  3.35000000e-04  5.01530000e+02  2.04700000e-06  0.00000000e+00
2.02682970e-03  1.38220850e+00  3.35280000e-04  4.96970000e+02  2.15400000e-06  0.00000000e+00
2.04709800e-03  1.38143343e+00  3.35560000e-04  4.92460000e+02  2.26600000e-06  0.00000000e+00
2.06756900e-03  1.38064186e+00  3.35840000e-04  4.88000000e+02  2.38400000e-06  0.00000000e+00
2.08824460e-03  1.37983343e+00  3.36130000e-04  4.83580000e+02  2.50800000e-06  0.00000000e+00
2.10912710e-03  1.37900775e+00  3.36420000e-04  4.79210000e+02  2.63800000e-06  0.00000000e+00
2.13021830e-03  1.37816444e+00  3.36710000e-04  4.74880000e+02  2.77400000e-06  0.00000000e+00
2.15152050e-03  1.37730312e+00  3.37010000e-04  4.70590000e+02  2.91700000e-06  0.00000000e+00
2.17303570e-03  1.37642337e+00  3.37310000e-04  4.66340000e+02  3.06700000e-06  0.00000000e+00
2.19476600e-03  1.37552479e+00  3.37620000e-04  4.62140000e+02  3.22400000e-06  0.00000000e+00
2.21671360e-03  1.37460696e+00  3.37920000e-04  4.57980000e+02  3.38900000e-06  0.00000000e+00
2.23888080e-03  1.37366943e+00  3.38230000e-04  4.53870000e+02  3.56200000e-06  0.00000000e+00
2.26126950e-03  1.37271177e+00  3.38550000e-04  4.49790000e+02  3.74400000e-06  0.00000000e+00
2.28388220e-03  1.37173351e+00  3.38870000e-04  4.45760000e+02  3.93400000e-06  0.00000000e+00
2.30672100e-03  1.37073420e+00  3.39190000e-04  4.41760000e+02  4.13300000e-06  0.00000000e+00
2.32978820e-03  1.36971335e+00  3.39520000e-04  4.37810000e+02  4.34300000e-06  0.00000000e+00
2.35308610e-03  1.36867047e+00  3.39850000e-04  4.33900000e+02  4.56200000e-06  0.00000000e+00
2.37661690e-03  1.36760506e+00  3.40180000e-04  4.30020000e+02  4.79100000e-06  0.00000000e+00
2.40038310e-03  1.36651660e+00  3.40520000e-04  4.26190000e+02  5.03200000e-06  0.00000000e+00
2.42438690e-03  1.36540455e+00  3.40860000e-04  4.22390000e+02  5.28400000e-06  0.00000000e+00
2.44863070e-03  1.36426839e+00  3.41210000e-04  4.18640000e+02  5.54900000e-06  0.00000000e+00
2.47311700e-03  1.36310754e+00  3.41560000e-04  4.14920000e+02  5.82600000e-06  0.00000000e+00
2.49784810e-03  1.36192145e+00  3.41910000e-04  4.11240000e+02  6.11600000e-06  0.00000000e+00
2.52282660e-03  1.36070950e+00  3.42270000e-04  4.07590000e+02  6.41900000e-06  0.00000000e+00
2.54805480e-03  1.35947112e+00  3.42630000e-04  4.03990000e+02  6.73700000e-06  0.00000000e+00
2.57353540e-03  1.35820567e+00  3.43000000e-04  4.00410000e+02  7.07000000e-06  0.00000000e+00
2.59927070e-03  1.35691253e+00  3.43370000e-04  3.96880000e+02  7.41900000e-06  0.00000000e+00
2.62526340e-03  1.35559103e+00  3.43750000e-04  3.93380000e+02  7.78400000e-06  0.00000000e+00
2.65151600e-03  1.35424051e+00  3.44130000e-04  3.89920000e+02  8.16600000e-06  0.00000000e+00
2.67803110e-03  1.35286028e+00  3.44520000e-04  3.86490000e+02  8.56600000e-06  0.00000000e+00
2.70481140e-03  1.35144963e+00  3.44910000e-04  3.83100000e+02  8.98400000e-06  0.00000000e+00
2.73185950e-03  1.35000785e+00  3.45310000e-04  3.79740000e+02  9.42200000e-06  0.00000000e+00
2.75917810e-03  1.34853417e+00  3.45710000e-04  3.76420000e+02  9.88000000e-06  0.00000000e+00
2.78676980e-03  1.34702784e+00  3.46110000e-04  3.73130000e+02  1.03600000e-05  0.00000000e+00
2.81463750e-03  1.34548806e+00  3.46520000e-04  3.69870000e+02  1.08600000e-05  0.00000000e+00
2.84278380e-03  1.34391403e+00  3.46940000e-04  3.66650000e+02  1.13800000e-05  0.00000000e+00
2.87121160e-03  1.34230491e+00  3.47360000e-04  3.63460000e+02  1.19300000e-05  0.00000000e+00
2.89992370e-03  1.34065985e+00  3.47780000e-04  3.60300000e+02  1.25100000e-05  0.00000000e+00
2.92892290e-03  1.33897796e+00  3.48220000e-04  3.57180000e+02  1.31100000e-05  0.00000000e+00
2.95821210e-03  1.33725834e+00  3.48650000e-04  3.54080000e+02  1.37300000e-05  0.00000000e+00
2.98779420e-03  1.33550006e+00  3.49090000e-04  3.51020000e+02  1.43900000e-05  0.00000000e+00
3.01767220e-03  1.33370216e+00  3.49540000e-04  3.47990000e+02  1.50700000e-05  0.00000000e+00
3.04784880e-03  1.33186364e+00  3.50000000e-04  3.44990000e+02  1.57900000e-05  0.00000000e+00
3.07832730e-03  1.32998350e+00  3.50450000e-04  3.42030000e+02  1.65300000e-05  0.00000000e+00
3.10911050e-03  1.32806068e+00  3.50920000e-04  3.39090000e+02  1.73100000e-05  0.00000000e+00
3.14020160e-03  1.32609411e+00  3.51390000e-04  3.36180000e+02  1.81300000e-05  0.00000000e+00
3.17160360e-03  1.32408268e+00  3.51870000e-04  3.33310000e+02  1.89800000e-05  0.00000000e+00
3.20331960e-03  1.32202525e+00  3.52350000e-04  3.30460000e+02  1.98700000e-05  0.00000000e+00
3.23535280e-03  1.31992062e+00  3.52840000e-04  3.27640000e+02  2.08000000e-05  0.00000000e+00
3.26770630e-03  1.31776760e+00  3.53340000e-04  3.24850000e+02  2.17700000e-05  0.00000000e+00
3.30038330e-03  1.31556493e+00  3.53840000e-04  3.22090000e+02  2.27900000e-05  0.00000000e+00
3.33338710e-03  1.31331131e+00  3.54350000e-04  3.19360000e+02  2.38400000e-05  0.00000000e+00
3.36672100e-03  1.31100541e+00  3.54860000e-04  3.16660000e+02  2.49500000e-05  0.00000000e+00
3.40038810e-03  1.30864586e+00  3.55380000e-04  3.13990000e+02  2.61000000e-05  0.00000000e+00
3.43439200e-03  1.30623124e+00  3.55910000e-04  3.11340000e+02  2.73100000e-05  0.00000000e+00
3.46873590e-03  1.30376009e+00  3.56440000e-04  3.08720000e+02  2.85600000e-05  0.00000000e+00
3.50342320e-03  1.30123090e+00  3.56990000e-04  3.06130000e+02  2.98700000e-05  0.00000000e+00
3.53845740e-03  1.29864209e+00  3.57540000e-04  3.03560000e+02  3.12400000e-05  0.00000000e+00
3.57384190e-03  1.29599207e+00  3.58090000e-04  3.01030000e+02  3.26600000e-05  0.00000000e+00
3.60958030e-03  1.29327917e+00  3.58660000e-04  2.98510000e+02  3.41500000e-05  0.00000000e+00
3.64567610e-03  1.29050165e+00  3.59230000e-04  2.96030000e+02  3.57000000e-05  0.00000000e+00
3.68213280e-03  1.28765775e+00  3.59810000e-04  2.93570000e+02  3.73200000e-05  0.00000000e+00
3.71895410e-03  1.28474562e+00  3.60390000e-04  2.91140000e+02  3.90100000e-05  0.00000000e+00
3.75614360e-03  1.28176336e+00  3.60990000e-04  2.88730000e+02  4.07700000e-05  0.00000000e+00
3.79370500e-03  1.27870898e+00  3.61590000e-04  2.86350000e+02  4.26000000e-05  0.00000000e+00
3.83164200e-03  1.27558046e+00  3.62200000e-04  2.83990000e+02  4.45100000e-05  0.00000000e+00
3.86995840e-03  1.27237568e+00  3.62820000e-04  2.81660000e+02  4.65000000e-05  0.00000000e+00
3.90865800e-03  1.26909245e+00  3.63440000e-04  2.79350000e+02  4.85800000e-05  0.00000000e+00
3.94774450e-03  1.26572850e+00  3.64080000e-04  2.77070000e+02  5.07400000e-05  0.00000000e+00
3.98722190e-03  1.26228147e+00  3.64720000e-04  2.74810000e+02  5.29900000e-05  0.00000000e+00
4.02709410e-03  1.25874894e+00  3.65380000e-04  2.72580000e+02  5.53400000e-05  0.00000000e+00
4.06736500e-03  1.25512836e+00  3.66040000e-04  2.70370000e+02  5.77800000e-05  0.00000000e+00
4.10803860e-03  1.25141711e+00  3.66710000e-04  2.68180000e+02  6.03300000e-05  0.00000000e+00
4.14911890e-03  1.24761247e+00  3.67390000e-04  2.66020000e+02  6.29800000e-05  0.00000000e+00
4.19061010e-03  1.24371160e+00  3.68080000e-04  2.63880000e+02  6.57500000e-05  0.00000000e+00
4.23251620e-03  1.23971156e+00  3.68780000e-04  2.61760000e+02  6.86200000e-05  0.00000000e+00
4.27484130e-03  1.23560929e+00  3.69480000e-04  2.59670000e+02  7.16200000e-05  0.00000000e+00
4.31758960e-03  1.23140160e+00  3.70200000e-04  2.57600000e+02  7.47300000e-05  0.00000000e+00
4.36076550e-03  1.22708519e+00  3.70930000e-04  2.55550000e+02  7.79800000e-05  0.00000000e+00
4.40437310e-03  1.22265661e+00  3.71670000e-04  2.53520000e+02  8.13500000e-05  0.00000000e+00
4.44841680e-03  1.21811227e+00  3.72420000e-04  2.51520000e+02  8.48700000e-05  0.00000000e+00
4.49290090e-03  1.21344842e+00  3.73180000e-04  2.49530000e+02  8.85200000e-05  0.00000000e+00
4.53782990e-03  1.20866116e+00  3.73950000e-04  2.47570000e+02  9.23300000e-05  0.00000000e+00
4.58320820e-03  1.20374643e+00  3.74730000e-04  2.45630000e+02  9.62800000e-05  0.00000000e+00
4.62904020e-03  1.19869997e+00  3.75520000e-04  2.43720000e+02  1.00400000e-04  0.00000000e+00
4.67533060e-03  1.19351736e+00  3.76320000e-04  2.41820000e+02  1.04700000e-04  0.00000000e+00
4.72208380e-03  1.18819395e+00  3.77140000e-04  2.39940000e+02  1.09100000e-04  0.00000000e+00
4.76930460e-03  1.18272490e+00  3.77970000e-04  2.38090000e+02  1.13800000e-04  0.00000000e+00
4.81699760e-03  1.17710513e+00  3.78800000e-04  2.36260000e+02  1.18600000e-04  0.00000000e+00
4.86516750e-03  1.17132934e+00  3.79650000e-04  2.34440000e+02  1.23600000e-04  0.00000000e+00
4.91381920e-03  1.16539196e+00  3.80520000e-04  2.32650000e+02  1.28800000e-04  0.00000000e+00
4.96295730e-03  1.15928717e+00  3.81390000e-04  2.30870000e+02  1.34200000e-04  0.00000000e+00
5.01258680e-03  1.15300884e+00  3.82280000e-04  2.29120000e+02  1.39800000e-04  0.00000000e+00
5.06271270e-03  1.14655055e+00  3.83180000e-04  2.27390000e+02  1.45600000e-04  0.00000000e+00
5.11333970e-03  1.13990557e+00  3.84100000e-04  2.25670000e+02  1.51700000e-04  0.00000000e+00
5.16447310e-03  1.13306677e+00  3.85030000e-04  2.23980000e+02  1.58000000e-04  0.00000000e+00
5.21611780e-03  1.12602670e+00  3.85970000e-04  2.22310000e+02  1.64600000e-04  0.00000000e+00
5.26827890e-03  1.11877750e+00  3.86930000e-04  2.20650000e+02  1.71400000e-04  0.00000000e+00
5.32096160e-03  1.11131086e+00  3.87900000e-04  2.19010000e+02  1.78400000e-04  0.00000000e+00
5.37417120e-03  1.10361805e+00  3.88880000e-04  2.17400000e+02  1.85800000e-04  0.00000000e+00
5.42791290e-03  1.09568982e+00  3.89890000e-04  2.15800000e+02  1.93400000e-04  0.00000000e+00
5.48219190e-03  1.08751639e+00  3.90900000e-04  2.14220000e+02  2.01300000e-04  0.00000000e+00
5.53701380e-03  1.07908744e+00  3.91930000e-04  2.12660000e+02  2.09500000e-04  0.00000000e+00
5.59238390e-03  1.07039201e+00  3.92980000e-04  2.11110000e+02  2.18000000e-04  0.00000000e+00
5.64830770e-03  1.06141848e+00  3.94040000e-04  2.09590000e+02  2.26800000e-04  0.00000000e+00
5.70479070e-03  1.05215452e+00  3.95120000e-04  2.08080000e+02  2.36000000e-04  0.00000000e+00
5.76183850e-03  1.04258701e+00  3.96220000e-04  2.06590000e+02  2.45600000e-04  0.00000000e+00
5.81945690e-03  1.03270201e+00  3.97340000e-04  2.05120000e+02  2.55400000e-04  0.00000000e+00
5.87765140e-03  1.02248463e+00  3.98470000e-04  2.03670000e+02  2.65700000e-04  0.00000000e+00
5.93642780e-03  1.01191900e+00  3.99620000e-04  2.02240000e+02  2.76300000e-04  0.00000000e+00
5.99579210e-03  1.00098815e+00  4.00780000e-04  2.00820000e+02  2.87400000e-04  0.00000000e+00
6.05574990e-03  9.89673932e-01  4.01970000e-04  1.99420000e+02  2.98800000e-04  0.00000000e+00
6.11630740e-03  9.77956869e-01  4.03180000e-04  1.98040000e+02  3.10700000e-04  0.00000000e+00
6.17747040e-03  9.65816059e-01  4.04400000e-04  1.96670000e+02  3.23000000e-04  0.00000000e+00
6.23924500e-03  9.53229017e-01  4.05650000e-04  1.95320000e+02  3.35700000e-04  0.00000000e+00
6.30163740e-03  9.40171514e-01  4.06910000e-04  1.93990000e+02  3.48900000e-04  0.00000000e+00
6.36465370e-03  9.26617393e-01  4.08200000e-04  1.92680000e+02  3.62600000e-04  0.00000000e+00
6.42830020e-03  9.12538355e-01  4.09500000e-04  1.91380000e+02  3.76800000e-04  0.00000000e+00
6.49258320e-03  8.97903724e-01  4.10830000e-04  1.90100000e+02  3.91600000e-04  0.00000000e+00
6.55750890e-03  8.82680171e-01  4.12180000e-04  1.88840000e+02  4.06800000e-04  0.00000000e+00
6.62308400e-03  8.66831399e-01  4.13550000e-04  1.87590000e+02  4.22600000e-04  0.00000000e+00
6.68931470e-03  8.50317777e-01  4.14950000e-04  1.86360000e+02  4.39000000e-04  0.00000000e+00
6.75620780e-03  8.33095924e-01  4.16370000e-04  1.85150000e+02  4.56000000e-04  0.00000000e+00
6.82376980e-03  8.15118219e-01  4.17810000e-04  1.83950000e+02  4.73500000e-04  0.00000000e+00
6.89200750e-03  7.96332223e-01  4.19280000e-04  1.82770000e+02  4.91700000e-04  0.00000000e+00
6.96092750e-03  7.76680014e-01  4.20770000e-04  1.81600000e+02  5.10600000e-04  0.00000000e+00
7.03053670e-03  7.56097392e-01  4.22290000e-04  1.80460000e+02  5.30100000e-04  0.00000000e+00
7.10084200e-03  7.34512932e-01  4.23840000e-04  1.79320000e+02  5.50300000e-04  0.00000000e+00
7.17185030e-03  7.11846860e-01  4.25410000e-04  1.78210000e+02  5.71200000e-04  0.00000000e+00
7.24356880e-03  6.88009697e-01  4.27010000e-04  1.77100000e+02  5.92800000e-04  0.00000000e+00
7.31600440e-03  6.62900611e-01  4.28640000e-04  1.76020000e+02  6.15300000e-04  0.00000000e+00
