#  Na:    Z = 11;   Atomic weight = 22.98980 g/mol ;    nominal density:   [INLINE] = 9.6900E-01 g/cm3
#         a(barns/atom) = (cm2/g)    3.81755E+01
#         E(eV) (cm2/g) = f2(e/atom)    1.83039E+06
#         4 edges. Edge energies (keV):
# K      1.07210E+00  L I    6.33000E-02  L II   3.11000E-02  L III  3.11000E-02
#         Relativistic correction estimate frel (H82,3/5CL) = -1.5378E-02, -8.4000E-03 e/atom
#         Nuclear Thomson correction fNT = -2.8873E-03 e/atom
#    _________________________________________________________________________________________________________
#  Form Factors, Attenuation and Scattering Cross-sections
#  Z=11, E = 0.001 - 1000 keV
#                                                             Attenuation
#    E         f1            f2                     [INLINE] (coh+inc) Coefficient    K       wavelength
#    keV       e/atom       e/atom      cm2/g       cm2/g      cm2/g          cm2/g        nm
1.01000000e-03  1.64443415e+00  7.32000000e-04  1.32660000e+03  1.45400000e-11  0.00000000e+00
1.02010000e-03  1.64455192e+00  7.32120000e-04  1.31370000e+03  1.57900000e-11  0.00000000e+00
1.03030100e-03  1.64461968e+00  7.32240000e-04  1.30090000e+03  1.71400000e-11  0.00000000e+00
1.04060400e-03  1.64466250e+00  7.32360000e-04  1.28820000e+03  1.86100000e-11  0.00000000e+00
1.05101010e-03  1.64469042e+00  7.32480000e-04  1.27570000e+03  2.02000000e-11  0.00000000e+00
1.06152010e-03  1.64470840e+00  7.32610000e-04  1.26320000e+03  2.19300000e-11  0.00000000e+00
1.07213530e-03  1.64471919e+00  7.32730000e-04  1.25090000e+03  2.37900000e-11  0.00000000e+00
1.08285670e-03  1.64472448e+00  7.32860000e-04  1.23880000e+03  2.58200000e-11  0.00000000e+00
1.09368520e-03  1.64472538e+00  7.32990000e-04  1.22670000e+03  2.80000000e-11  0.00000000e+00
1.10462210e-03  1.64472263e+00  7.33110000e-04  1.21480000e+03  3.03700000e-11  0.00000000e+00
1.11566830e-03  1.64471679e+00  7.33250000e-04  1.20300000e+03  3.29400000e-11  0.00000000e+00
1.12682500e-03  1.64470826e+00  7.33380000e-04  1.19130000e+03  3.57200000e-11  0.00000000e+00
1.13809320e-03  1.64469733e+00  7.33510000e-04  1.17970000e+03  3.87200000e-11  0.00000000e+00
1.14947410e-03  1.64468425e+00  7.33640000e-04  1.16820000e+03  4.19700000e-11  0.00000000e+00
1.16096880e-03  1.64466918e+00  7.33780000e-04  1.15690000e+03  4.54900000e-11  0.00000000e+00
1.17257850e-03  1.64465229e+00  7.33920000e-04  1.14560000e+03  4.92900000e-11  0.00000000e+00
1.18430430e-03  1.64463368e+00  7.34060000e-04  1.13450000e+03  5.34000000e-11  0.00000000e+00
1.19614730e-03  1.64461344e+00  7.34200000e-04  1.12350000e+03  5.78400000e-11  0.00000000e+00
1.20810880e-03  1.64459166e+00  7.34340000e-04  1.11260000e+03  6.26500000e-11  0.00000000e+00
1.22018990e-03  1.64456840e+00  7.34480000e-04  1.10180000e+03  6.78400000e-11  0.00000000e+00
1.23239180e-03  1.64454370e+00  7.34620000e-04  1.09110000e+03  7.34500000e-11  0.00000000e+00
1.24471570e-03  1.64451761e+00  7.34770000e-04  1.08050000e+03  7.95200000e-11  0.00000000e+00
1.25716280e-03  1.64449017e+00  7.34920000e-04  1.07000000e+03  8.60700000e-11  0.00000000e+00
1.26973440e-03  1.64446139e+00  7.35070000e-04  1.05960000e+03  9.31500000e-11  0.00000000e+00
1.28243180e-03  1.64443131e+00  7.35220000e-04  1.04940000e+03  1.00800000e-10  0.00000000e+00
1.29525610e-03  1.64439993e+00  7.35370000e-04  1.03920000e+03  1.09000000e-10  0.00000000e+00
1.30820860e-03  1.64436727e+00  7.35520000e-04  1.02910000e+03  1.17900000e-10  0.00000000e+00
1.32129070e-03  1.64433335e+00  7.35680000e-04  1.01910000e+03  1.27600000e-10  0.00000000e+00
1.33450360e-03  1.64429815e+00  7.35830000e-04  1.00930000e+03  1.37900000e-10  0.00000000e+00
1.34784860e-03  1.64426170e+00  7.35990000e-04  9.99490000e+02  1.49100000e-10  0.00000000e+00
1.36132710e-03  1.64422398e+00  7.36150000e-04  9.89800000e+02  1.61200000e-10  0.00000000e+00
1.37494030e-03  1.64418501e+00  7.36320000e-04  9.80220000e+02  1.74300000e-10  0.00000000e+00
1.38868970e-03  1.64414476e+00  7.36480000e-04  9.70730000e+02  1.88300000e-10  0.00000000e+00
1.40257660e-03  1.64410324e+00  7.36640000e-04  9.61330000e+02  2.03500000e-10  0.00000000e+00
1.41660240e-03  1.64406045e+00  7.36810000e-04  9.52030000e+02  2.19800000e-10  0.00000000e+00
1.43076840e-03  1.64401636e+00  7.36980000e-04  9.42820000e+02  2.37400000e-10  0.00000000e+00
1.44507600e-03  1.64397098e+00  7.37150000e-04  9.33700000e+02  2.56400000e-10  0.00000000e+00
1.45952680e-03  1.64392428e+00  7.37320000e-04  9.24670000e+02  2.76900000e-10  0.00000000e+00
1.47412200e-03  1.64387627e+00  7.37500000e-04  9.15740000e+02  2.99000000e-10  0.00000000e+00
1.48886320e-03  1.64382691e+00  7.37670000e-04  9.06890000e+02  3.22700000e-10  0.00000000e+00
1.50375190e-03  1.64377621e+00  7.37850000e-04  8.98120000e+02  3.48300000e-10  0.00000000e+00
1.51878940e-03  1.64372414e+00  7.38030000e-04  8.89450000e+02  3.75900000e-10  0.00000000e+00
1.53397720e-03  1.64367068e+00  7.38210000e-04  8.80860000e+02  4.05600000e-10  0.00000000e+00
1.54931700e-03  1.64361582e+00  7.38390000e-04  8.72350000e+02  4.37600000e-10  0.00000000e+00
1.56481020e-03  1.64355953e+00  7.38580000e-04  8.63930000e+02  4.72000000e-10  0.00000000e+00
1.58045820e-03  1.64350181e+00  7.38770000e-04  8.55590000e+02  5.09000000e-10  0.00000000e+00
1.59626280e-03  1.64344262e+00  7.38960000e-04  8.47340000e+02  5.48900000e-10  0.00000000e+00
1.61222540e-03  1.64338194e+00  7.39150000e-04  8.39170000e+02  5.91800000e-10  0.00000000e+00
1.62834770e-03  1.64331975e+00  7.39340000e-04  8.31080000e+02  6.37900000e-10  0.00000000e+00
1.64463110e-03  1.64325604e+00  7.39540000e-04  8.23070000e+02  6.87600000e-10  0.00000000e+00
1.66107740e-03  1.64319076e+00  7.39730000e-04  8.15130000e+02  7.41000000e-10  0.00000000e+00
1.67768820e-03  1.64312391e+00  7.39930000e-04  8.07280000e+02  7.98400000e-10  0.00000000e+00
1.69446500e-03  1.64305544e+00  7.40130000e-04  7.99510000e+02  8.60100000e-10  0.00000000e+00
1.71140970e-03  1.64298534e+00  7.40340000e-04  7.91810000e+02  9.26500000e-10  0.00000000e+00
1.72852380e-03  1.64291358e+00  7.40540000e-04  7.84190000e+02  9.97800000e-10  0.00000000e+00
1.74580900e-03  1.64284013e+00  7.40750000e-04  7.76640000e+02  1.07400000e-09  0.00000000e+00
1.76326710e-03  1.64276495e+00  7.40960000e-04  7.69170000e+02  1.15700000e-09  0.00000000e+00
1.78089970e-03  1.64268803e+00  7.41170000e-04  7.61770000e+02  1.24500000e-09  0.00000000e+00
1.79870870e-03  1.64260932e+00  7.41390000e-04  7.54450000e+02  1.34000000e-09  0.00000000e+00
1.81669580e-03  1.64252880e+00  7.41610000e-04  7.47200000e+02  1.44200000e-09  0.00000000e+00
1.83486270e-03  1.64244643e+00  7.41820000e-04  7.40020000e+02  1.55200000e-09  0.00000000e+00
1.85321130e-03  1.64236218e+00  7.42050000e-04  7.32910000e+02  1.67000000e-09  0.00000000e+00
1.87174340e-03  1.64227602e+00  7.42270000e-04  7.25870000e+02  1.79600000e-09  0.00000000e+00
1.89046080e-03  1.64218791e+00  7.42500000e-04  7.18900000e+02  1.93100000e-09  0.00000000e+00
1.90936540e-03  1.64209781e+00  7.42720000e-04  7.12000000e+02  2.07700000e-09  0.00000000e+00
1.92845900e-03  1.64200569e+00  7.42960000e-04  7.05170000e+02  2.23300000e-09  0.00000000e+00
1.94774360e-03  1.64191150e+00  7.43190000e-04  6.98410000e+02  2.40100000e-09  0.00000000e+00
1.96722100e-03  1.64181522e+00  7.43430000e-04  6.91720000e+02  2.58000000e-09  0.00000000e+00
1.98689320e-03  1.64171680e+00  7.43660000e-04  6.85090000e+02  2.77300000e-09  0.00000000e+00
2.00676210e-03  1.64161620e+00  7.43900000e-04  6.78520000e+02  2.97900000e-09  0.00000000e+00
2.02682970e-03  1.64151337e+00  7.44150000e-04  6.72030000e+02  3.20100000e-09  0.00000000e+00
2.04709800e-03  1.64140828e+00  7.44390000e-04  6.65590000e+02  3.43800000e-09  0.00000000e+00
2.06756900e-03  1.64130089e+00  7.44640000e-04  6.59220000e+02  3.69300000e-09  0.00000000e+00
2.08824460e-03  1.64119114e+00  7.44890000e-04  6.52920000e+02  3.96600000e-09  0.00000000e+00
2.10912710e-03  1.64107900e+00  7.45150000e-04  6.46670000e+02  4.25800000e-09  0.00000000e+00
2.13021830e-03  1.64096441e+00  7.45410000e-04  6.40490000e+02  4.57100000e-09  0.00000000e+00
2.15152050e-03  1.64084733e+00  7.45670000e-04  6.34370000e+02  4.90600000e-09  0.00000000e+00
2.17303570e-03  1.64072771e+00  7.45930000e-04  6.28310000e+02  5.26500000e-09  0.00000000e+00
2.19476600e-03  1.64060551e+00  7.46190000e-04  6.22310000e+02  5.65000000e-09  0.00000000e+00
2.21671360e-03  1.64048066e+00  7.46460000e-04  6.16370000e+02  6.06200000e-09  0.00000000e+00
2.23888080e-03  1.64035312e+00  7.46730000e-04  6.10490000e+02  6.50200000e-09  0.00000000e+00
2.26126950e-03  1.64022284e+00  7.47010000e-04  6.04670000e+02  6.97400000e-09  0.00000000e+00
2.28388220e-03  1.64008976e+00  7.47280000e-04  5.98900000e+02  7.47900000e-09  0.00000000e+00
2.30672100e-03  1.63995383e+00  7.47560000e-04  5.93190000e+02  8.01900000e-09  0.00000000e+00
2.32978820e-03  1.63981499e+00  7.47850000e-04  5.87540000e+02  8.59700000e-09  0.00000000e+00
2.35308610e-03  1.63967318e+00  7.48130000e-04  5.81950000e+02  9.21500000e-09  0.00000000e+00
2.37661690e-03  1.63952834e+00  7.48420000e-04  5.76410000e+02  9.87600000e-09  0.00000000e+00
2.40038310e-03  1.63938042e+00  7.48710000e-04  5.70920000e+02  1.05800000e-08  0.00000000e+00
2.42438690e-03  1.63922935e+00  7.49010000e-04  5.65490000e+02  1.13400000e-08  0.00000000e+00
2.44863070e-03  1.63907508e+00  7.49310000e-04  5.60120000e+02  1.21500000e-08  0.00000000e+00
2.47311700e-03  1.63891753e+00  7.49610000e-04  5.54800000e+02  1.30100000e-08  0.00000000e+00
2.49784810e-03  1.63875664e+00  7.49910000e-04  5.49530000e+02  1.39300000e-08  0.00000000e+00
2.52282660e-03  1.63859235e+00  7.50220000e-04  5.44310000e+02  1.49200000e-08  0.00000000e+00
2.54805480e-03  1.63842458e+00  7.50530000e-04  5.39140000e+02  1.59700000e-08  0.00000000e+00
2.57353540e-03  1.63825327e+00  7.50850000e-04  5.34030000e+02  1.71000000e-08  0.00000000e+00
2.59927070e-03  1.63807835e+00  7.51170000e-04  5.28970000e+02  1.83000000e-08  0.00000000e+00
2.62526340e-03  1.63789974e+00  7.51490000e-04  5.23950000e+02  1.95800000e-08  0.00000000e+00
2.65151600e-03  1.63771738e+00  7.51810000e-04  5.18990000e+02  2.09600000e-08  0.00000000e+00
2.67803110e-03  1.63753118e+00  7.52140000e-04  5.14080000e+02  2.24200000e-08  0.00000000e+00
2.70481140e-03  1.63734106e+00  7.52470000e-04  5.09210000e+02  2.39800000e-08  0.00000000e+00
2.73185950e-03  1.63714696e+00  7.52810000e-04  5.04400000e+02  2.56500000e-08  0.00000000e+00
2.75917810e-03  1.63694878e+00  7.53150000e-04  4.99630000e+02  2.74300000e-08  0.00000000e+00
2.78676980e-03  1.63674646e+00  7.53490000e-04  4.94910000e+02  2.93200000e-08  0.00000000e+00
2.81463750e-03  1.63653989e+00  7.53840000e-04  4.90230000e+02  3.13500000e-08  0.00000000e+00
2.84278380e-03  1.63632901e+00  7.54190000e-04  4.85600000e+02  3.35100000e-08  0.00000000e+00
2.87121160e-03  1.63611371e+00  7.54550000e-04  4.81020000e+02  3.58100000e-08  0.00000000e+00
2.89992370e-03  1.63589392e+00  7.54900000e-04  4.76490000e+02  3.82600000e-08  0.00000000e+00
2.92892290e-03  1.63566954e+00  7.55270000e-04  4.71990000e+02  4.08800000e-08  0.00000000e+00
2.95821210e-03  1.63544048e+00  7.55630000e-04  4.67550000e+02  4.36700000e-08  0.00000000e+00
2.98779420e-03  1.63520664e+00  7.56000000e-04  4.63150000e+02  4.66400000e-08  0.00000000e+00
3.01767220e-03  1.63496793e+00  7.56380000e-04  4.58790000e+02  4.98100000e-08  0.00000000e+00
3.04784880e-03  1.63472425e+00  7.56760000e-04  4.54470000e+02  5.31800000e-08  0.00000000e+00
3.07832730e-03  1.63447549e+00  7.57140000e-04  4.50200000e+02  5.67800000e-08  0.00000000e+00
3.10911050e-03  1.63422156e+00  7.57530000e-04  4.45970000e+02  6.06100000e-08  0.00000000e+00
3.14020160e-03  1.63396235e+00  7.57920000e-04  4.41780000e+02  6.46900000e-08  0.00000000e+00
3.17160360e-03  1.63369775e+00  7.58320000e-04  4.37640000e+02  6.90300000e-08  0.00000000e+00
3.20331960e-03  1.63342766e+00  7.58720000e-04  4.33530000e+02  7.36600000e-08  0.00000000e+00
3.23535280e-03  1.63315195e+00  7.59120000e-04  4.29470000e+02  7.85800000e-08  0.00000000e+00
3.26770630e-03  1.63287053e+00  7.59530000e-04  4.25450000e+02  8.38200000e-08  0.00000000e+00
3.30038330e-03  1.63258326e+00  7.59940000e-04  4.21460000e+02  8.93900000e-08  0.00000000e+00
3.33338710e-03  1.63229004e+00  7.60360000e-04  4.17520000e+02  9.53200000e-08  0.00000000e+00
3.36672100e-03  1.63199074e+00  7.60780000e-04  4.13620000e+02  1.01600000e-07  0.00000000e+00
3.40038810e-03  1.63168523e+00  7.61210000e-04  4.09750000e+02  1.08300000e-07  0.00000000e+00
3.43439200e-03  1.63137340e+00  7.61640000e-04  4.05930000e+02  1.15500000e-07  0.00000000e+00
3.46873590e-03  1.63105510e+00  7.62080000e-04  4.02140000e+02  1.23100000e-07  0.00000000e+00
3.50342320e-03  1.63073022e+00  7.62520000e-04  3.98390000e+02  1.31100000e-07  0.00000000e+00
3.53845740e-03  1.63039861e+00  7.62970000e-04  3.94670000e+02  1.39700000e-07  0.00000000e+00
3.57384190e-03  1.63006013e+00  7.63420000e-04  3.91000000e+02  1.48800000e-07  0.00000000e+00
3.60958030e-03  1.62971466e+00  7.63880000e-04  3.87360000e+02  1.58500000e-07  0.00000000e+00
3.64567610e-03  1.62936203e+00  7.64340000e-04  3.83750000e+02  1.68800000e-07  0.00000000e+00
3.68213280e-03  1.62900212e+00  7.64810000e-04  3.80190000e+02  1.79800000e-07  0.00000000e+00
3.71895410e-03  1.62863476e+00  7.65280000e-04  3.76660000e+02  1.91400000e-07  0.00000000e+00
3.75614360e-03  1.62825980e+00  7.65760000e-04  3.73160000e+02  2.03800000e-07  0.00000000e+00
3.79370500e-03  1.62787710e+00  7.66240000e-04  3.69700000e+02  2.16900000e-07  0.00000000e+00
3.83164200e-03  1.62748648e+00  7.66730000e-04  3.66270000e+02  2.30800000e-07  0.00000000e+00
3.86995840e-03  1.62708780e+00  7.67230000e-04  3.62880000e+02  2.45600000e-07  0.00000000e+00
3.90865800e-03  1.62668088e+00  7.67730000e-04  3.59520000e+02  2.61300000e-07  0.00000000e+00
3.94774450e-03  1.62626554e+00  7.68230000e-04  3.56190000e+02  2.77900000e-07  0.00000000e+00
3.98722190e-03  1.62584163e+00  7.68740000e-04  3.52900000e+02  2.95600000e-07  0.00000000e+00
4.02709410e-03  1.62540896e+00  7.69260000e-04  3.49640000e+02  3.14300000e-07  0.00000000e+00
4.06736500e-03  1.62496736e+00  7.69780000e-04  3.46420000e+02  3.34200000e-07  0.00000000e+00
4.10803860e-03  1.62451663e+00  7.70310000e-04  3.43220000e+02  3.55300000e-07  0.00000000e+00
4.14911890e-03  1.62405660e+00  7.70850000e-04  3.40060000e+02  3.77700000e-07  0.00000000e+00
4.19061010e-03  1.62358706e+00  7.71390000e-04  3.36930000e+02  4.01400000e-07  0.00000000e+00
4.23251620e-03  1.62310783e+00  7.71930000e-04  3.33830000e+02  4.26600000e-07  0.00000000e+00
4.27484130e-03  1.62261869e+00  7.72490000e-04  3.30760000e+02  4.53200000e-07  0.00000000e+00
4.31758960e-03  1.62211946e+00  7.73050000e-04  3.27720000e+02  4.81500000e-07  0.00000000e+00
4.36076550e-03  1.62160991e+00  7.73610000e-04  3.24720000e+02  5.11400000e-07  0.00000000e+00
4.40437310e-03  1.62108984e+00  7.74190000e-04  3.21740000e+02  5.43200000e-07  0.00000000e+00
4.44841680e-03  1.62055903e+00  7.74770000e-04  3.18790000e+02  5.76800000e-07  0.00000000e+00
4.49290090e-03  1.62001725e+00  7.75350000e-04  3.15880000e+02  6.12400000e-07  0.00000000e+00
4.53782990e-03  1.61946428e+00  7.75950000e-04  3.12990000e+02  6.50100000e-07  0.00000000e+00
4.58320820e-03  1.61889988e+00  7.76540000e-04  3.10130000e+02  6.90100000e-07  0.00000000e+00
4.62904020e-03  1.61832383e+00  7.77150000e-04  3.07300000e+02  7.32400000e-07  0.00000000e+00
4.67533060e-03  1.61773586e+00  7.77760000e-04  3.04490000e+02  7.77200000e-07  0.00000000e+00
4.72208380e-03  1.61713575e+00  7.78390000e-04  3.01720000e+02  8.24600000e-07  0.00000000e+00
4.76930460e-03  1.61652323e+00  7.79010000e-04  2.98970000e+02  8.74800000e-07  0.00000000e+00
4.81699760e-03  1.61589804e+00  7.79650000e-04  2.96260000e+02  9.27900000e-07  0.00000000e+00
4.86516750e-03  1.61525993e+00  7.80290000e-04  2.93560000e+02  9.84100000e-07  0.00000000e+00
4.91381920e-03  1.61460862e+00  7.80940000e-04  2.90900000e+02  1.04400000e-06  0.00000000e+00
4.96295730e-03  1.61394383e+00  7.81600000e-04  2.88260000e+02  1.10600000e-06  0.00000000e+00
5.01258680e-03  1.61326530e+00  7.82260000e-04  2.85650000e+02  1.17300000e-06  0.00000000e+00
5.06271270e-03  1.61257272e+00  7.82940000e-04  2.83070000e+02  1.24300000e-06  0.00000000e+00
5.11333970e-03  1.61186580e+00  7.83620000e-04  2.80510000e+02  1.31800000e-06  0.00000000e+00
5.16447310e-03  1.61114425e+00  7.84310000e-04  2.77970000e+02  1.39600000e-06  0.00000000e+00
5.21611780e-03  1.61040775e+00  7.85010000e-04  2.75470000e+02  1.47900000e-06  0.00000000e+00
5.26827890e-03  1.60965600e+00  7.85710000e-04  2.72980000e+02  1.56700000e-06  0.00000000e+00
5.32096160e-03  1.60888867e+00  7.86430000e-04  2.70530000e+02  1.66000000e-06  0.00000000e+00
5.37417120e-03  1.60810543e+00  7.87150000e-04  2.68090000e+02  1.75800000e-06  0.00000000e+00
5.42791290e-03  1.60730596e+00  7.87880000e-04  2.65690000e+02  1.86100000e-06  0.00000000e+00
5.48219190e-03  1.60648990e+00  7.88620000e-04  2.63300000e+02  1.97100000e-06  0.00000000e+00
5.53701380e-03  1.60565691e+00  7.89370000e-04  2.60940000e+02  2.08600000e-06  0.00000000e+00
5.59238390e-03  1.60480663e+00  7.90120000e-04  2.58610000e+02  2.20800000e-06  0.00000000e+00
5.64830770e-03  1.60393870e+00  7.90890000e-04  2.56300000e+02  2.33700000e-06  0.00000000e+00
5.70479070e-03  1.60305274e+00  7.91670000e-04  2.54010000e+02  2.47300000e-06  0.00000000e+00
5.76183850e-03  1.60214837e+00  7.92450000e-04  2.51740000e+02  2.61700000e-06  0.00000000e+00
5.81945690e-03  1.60122520e+00  7.93240000e-04  2.49500000e+02  2.76800000e-06  0.00000000e+00
5.87765140e-03  1.60028283e+00  7.94050000e-04  2.47280000e+02  2.92800000e-06  0.00000000e+00
5.93642780e-03  1.59932085e+00  7.94860000e-04  2.45080000e+02  3.09700000e-06  0.00000000e+00
5.99579210e-03  1.59833885e+00  7.95690000e-04  2.42910000e+02  3.27400000e-06  0.00000000e+00
6.05574990e-03  1.59733640e+00  7.96520000e-04  2.40750000e+02  3.46200000e-06  0.00000000e+00
6.11630740e-03  1.59631306e+00  7.97360000e-04  2.38620000e+02  3.66000000e-06  0.00000000e+00
6.17747040e-03  1.59526840e+00  7.98220000e-04  2.36510000e+02  3.86900000e-06  0.00000000e+00
6.23924500e-03  1.59420194e+00  7.99080000e-04  2.34420000e+02  4.08900000e-06  0.00000000e+00
6.30163740e-03  1.59311323e+00  7.99960000e-04  2.32360000e+02  4.32000000e-06  0.00000000e+00
6.36465370e-03  1.59200179e+00  8.00840000e-04  2.30310000e+02  4.56500000e-06  0.00000000e+00
6.42830020e-03  1.59086713e+00  8.01740000e-04  2.28290000e+02  4.82200000e-06  0.00000000e+00
6.49258320e-03  1.58970876e+00  8.02640000e-04  2.26280000e+02  5.09400000e-06  0.00000000e+00
6.55750890e-03  1.58852615e+00  8.03560000e-04  2.24300000e+02  5.38000000e-06  0.00000000e+00
6.62308400e-03  1.58731880e+00  8.04490000e-04  2.22330000e+02  5.68100000e-06  0.00000000e+00
6.68931470e-03  1.58608616e+00  8.05430000e-04  2.20390000e+02  5.99800000e-06  0.00000000e+00
6.75620780e-03  1.58482770e+00  8.06390000e-04  2.18470000e+02  6.33200000e-06  0.00000000e+00
6.82376980e-03  1.58354284e+00  8.07350000e-04  2.16560000e+02  6.68400000e-06  0.00000000e+00
6.89200750e-03  1.58223103e+00  8.08330000e-04  2.14680000e+02  7.05400000e-06  0.00000000e+00
6.96092750e-03  1.58089167e+00  8.09320000e-04  2.12810000e+02  7.44400000e-06  0.00000000e+00
7.03053670e-03  1.57952417e+00  8.10320000e-04  2.10960000e+02  7.85400000e-06  0.00000000e+00
7.10084200e-03  1.57812791e+00  8.11330000e-04  2.09140000e+02  8.28600000e-06  0.00000000e+00
7.17185030e-03  1.57670226e+00  8.12360000e-04  2.07330000e+02  8.74100000e-06  0.00000000e+00
7.24356880e-03  1.57524659e+00  8.13400000e-04  2.05540000e+02  9.21900000e-06  0.00000000e+00
7.31600440e-03  1.57376024e+00  8.14450000e-04  2.03770000e+02  9.72100000e-06  0.00000000e+00
