#  Ar:    Z = 18;   Atomic weight = 39.94800 g/mol ;    nominal density:   [INLINE] = 1.6600E-03 g/cm3
#         a(barns/atom) = (cm2/g)    6.63353E+01
#         E(eV) (cm2/g) = f2(e/atom)    1.05338E+06
#         7 edges. Edge energies (keV):
# K      3.20290E+00  L I    3.20000E-01  L II   2.47300E-01  L III  2.45200E-01
# M I    2.53000E-02  M II   1.24000E-02  M III  1.24000E-02
#         Relativistic correction estimate frel (H82,3/5CL) = -4.6144E-02, -2.8200E-02 e/atom
#         Nuclear Thomson correction fNT = -4.4493E-03 e/atom
#    _________________________________________________________________________________________________________
#  Form Factors, Attenuation and Scattering Cross-sections
#  Z=18, E = 0.001 - 1000 keV
#                                                             Attenuation
#    E         f1            f2                     [INLINE] (coh+inc) Coefficient    K       wavelength
#    keV       e/atom       e/atom      cm2/g       cm2/g      cm2/g          cm2/g        nm
1.01000000e-03  1.35035876e+00  1.87680000e-03  1.95750000e+03  1.71000000e-10  0.00000000e+00
1.02010000e-03  1.35033837e+00  1.87690000e-03  1.93810000e+03  1.84400000e-10  0.00000000e+00
1.03030100e-03  1.35024793e+00  1.87700000e-03  1.91900000e+03  1.98700000e-10  0.00000000e+00
1.04060400e-03  1.35010528e+00  1.87700000e-03  1.90010000e+03  2.14200000e-10  0.00000000e+00
1.05101010e-03  1.34992154e+00  1.87710000e-03  1.88130000e+03  2.30800000e-10  0.00000000e+00
1.06152010e-03  1.34970416e+00  1.87720000e-03  1.86280000e+03  2.48600000e-10  0.00000000e+00
1.07213530e-03  1.34945834e+00  1.87720000e-03  1.84440000e+03  2.67800000e-10  0.00000000e+00
1.08285670e-03  1.34918780e+00  1.87730000e-03  1.82620000e+03  2.88500000e-10  0.00000000e+00
1.09368520e-03  1.34889530e+00  1.87740000e-03  1.80820000e+03  3.10700000e-10  0.00000000e+00
1.10462210e-03  1.34858288e+00  1.87740000e-03  1.79030000e+03  3.34500000e-10  0.00000000e+00
1.11566830e-03  1.34825212e+00  1.87750000e-03  1.77270000e+03  3.60200000e-10  0.00000000e+00
1.12682500e-03  1.34790419e+00  1.87760000e-03  1.75520000e+03  3.87700000e-10  0.00000000e+00
1.13809320e-03  1.34754004e+00  1.87760000e-03  1.73790000e+03  4.17300000e-10  0.00000000e+00
1.14947410e-03  1.34716036e+00  1.87770000e-03  1.72070000e+03  4.49100000e-10  0.00000000e+00
1.16096880e-03  1.34676571e+00  1.87780000e-03  1.70380000e+03  4.83200000e-10  0.00000000e+00
1.17257850e-03  1.34635650e+00  1.87790000e-03  1.68700000e+03  5.19900000e-10  0.00000000e+00
1.18430430e-03  1.34593307e+00  1.87790000e-03  1.67030000e+03  5.59200000e-10  0.00000000e+00
1.19614730e-03  1.34549564e+00  1.87800000e-03  1.65390000e+03  6.01400000e-10  0.00000000e+00
1.20810880e-03  1.34504437e+00  1.87810000e-03  1.63750000e+03  6.46800000e-10  0.00000000e+00
1.22018990e-03  1.34457939e+00  1.87820000e-03  1.62140000e+03  6.95500000e-10  0.00000000e+00
1.23239180e-03  1.34410074e+00  1.87820000e-03  1.60540000e+03  7.47700000e-10  0.00000000e+00
1.24471570e-03  1.34360845e+00  1.87830000e-03  1.58960000e+03  8.03700000e-10  0.00000000e+00
1.25716280e-03  1.34310250e+00  1.87840000e-03  1.57390000e+03  8.63800000e-10  0.00000000e+00
1.26973440e-03  1.34258285e+00  1.87850000e-03  1.55840000e+03  9.28300000e-10  0.00000000e+00
1.28243180e-03  1.34204943e+00  1.87860000e-03  1.54300000e+03  9.97400000e-10  0.00000000e+00
1.29525610e-03  1.34150214e+00  1.87860000e-03  1.52780000e+03  1.07200000e-09  0.00000000e+00
1.30820860e-03  1.34094086e+00  1.87870000e-03  1.51280000e+03  1.15100000e-09  0.00000000e+00
1.32129070e-03  1.34036546e+00  1.87880000e-03  1.49780000e+03  1.23600000e-09  0.00000000e+00
1.33450360e-03  1.33977579e+00  1.87890000e-03  1.48310000e+03  1.32700000e-09  0.00000000e+00
1.34784860e-03  1.33917167e+00  1.87900000e-03  1.46850000e+03  1.42500000e-09  0.00000000e+00
1.36132710e-03  1.33855292e+00  1.87900000e-03  1.45400000e+03  1.53000000e-09  0.00000000e+00
1.37494030e-03  1.33791935e+00  1.87910000e-03  1.43970000e+03  1.64300000e-09  0.00000000e+00
1.38868970e-03  1.33727075e+00  1.87920000e-03  1.42550000e+03  1.76300000e-09  0.00000000e+00
1.40257660e-03  1.33660688e+00  1.87930000e-03  1.41140000e+03  1.89200000e-09  0.00000000e+00
1.41660240e-03  1.33592752e+00  1.87940000e-03  1.39750000e+03  2.03000000e-09  0.00000000e+00
1.43076840e-03  1.33523242e+00  1.87950000e-03  1.38370000e+03  2.17800000e-09  0.00000000e+00
1.44507600e-03  1.33452133e+00  1.87960000e-03  1.37010000e+03  2.33600000e-09  0.00000000e+00
1.45952680e-03  1.33379397e+00  1.87970000e-03  1.35660000e+03  2.50500000e-09  0.00000000e+00
1.47412200e-03  1.33305008e+00  1.87980000e-03  1.34320000e+03  2.68600000e-09  0.00000000e+00
1.48886320e-03  1.33228935e+00  1.87990000e-03  1.33000000e+03  2.88000000e-09  0.00000000e+00
1.50375190e-03  1.33151150e+00  1.87990000e-03  1.31690000e+03  3.08800000e-09  0.00000000e+00
1.51878940e-03  1.33071622e+00  1.88000000e-03  1.30390000e+03  3.31000000e-09  0.00000000e+00
1.53397720e-03  1.32990319e+00  1.88010000e-03  1.29110000e+03  3.54700000e-09  0.00000000e+00
1.54931700e-03  1.32907208e+00  1.88020000e-03  1.27840000e+03  3.80100000e-09  0.00000000e+00
1.56481020e-03  1.32822256e+00  1.88030000e-03  1.26580000e+03  4.07300000e-09  0.00000000e+00
1.58045820e-03  1.32735428e+00  1.88040000e-03  1.25330000e+03  4.36300000e-09  0.00000000e+00
1.59626280e-03  1.32646688e+00  1.88050000e-03  1.24100000e+03  4.67400000e-09  0.00000000e+00
1.61222540e-03  1.32556001e+00  1.88060000e-03  1.22870000e+03  5.00600000e-09  0.00000000e+00
1.62834770e-03  1.32463327e+00  1.88070000e-03  1.21660000e+03  5.36100000e-09  0.00000000e+00
1.64463110e-03  1.32368630e+00  1.88080000e-03  1.20470000e+03  5.74000000e-09  0.00000000e+00
1.66107740e-03  1.32271869e+00  1.88090000e-03  1.19280000e+03  6.14500000e-09  0.00000000e+00
1.67768820e-03  1.32173004e+00  1.88100000e-03  1.18110000e+03  6.57700000e-09  0.00000000e+00
1.69446500e-03  1.32071993e+00  1.88110000e-03  1.16940000e+03  7.03900000e-09  0.00000000e+00
1.71140970e-03  1.31968794e+00  1.88130000e-03  1.15790000e+03  7.53300000e-09  0.00000000e+00
1.72852380e-03  1.31863362e+00  1.88140000e-03  1.14650000e+03  8.06000000e-09  0.00000000e+00
1.74580900e-03  1.31755654e+00  1.88150000e-03  1.13520000e+03  8.62300000e-09  0.00000000e+00
1.76326710e-03  1.31645623e+00  1.88160000e-03  1.12410000e+03  9.22400000e-09  0.00000000e+00
1.78089970e-03  1.31533223e+00  1.88170000e-03  1.11300000e+03  9.86500000e-09  0.00000000e+00
1.79870870e-03  1.31418405e+00  1.88180000e-03  1.10200000e+03  1.05500000e-08  0.00000000e+00
1.81669580e-03  1.31301121e+00  1.88190000e-03  1.09120000e+03  1.12800000e-08  0.00000000e+00
1.83486270e-03  1.31181319e+00  1.88200000e-03  1.08050000e+03  1.20600000e-08  0.00000000e+00
1.85321130e-03  1.31058949e+00  1.88210000e-03  1.06980000e+03  1.28900000e-08  0.00000000e+00
1.87174340e-03  1.30933957e+00  1.88230000e-03  1.05930000e+03  1.37800000e-08  0.00000000e+00
1.89046080e-03  1.30806289e+00  1.88240000e-03  1.04890000e+03  1.47200000e-08  0.00000000e+00
1.90936540e-03  1.30675891e+00  1.88250000e-03  1.03860000e+03  1.57300000e-08  0.00000000e+00
1.92845900e-03  1.30542706e+00  1.88260000e-03  1.02830000e+03  1.68100000e-08  0.00000000e+00
1.94774360e-03  1.30406675e+00  1.88270000e-03  1.01820000e+03  1.79500000e-08  0.00000000e+00
1.96722100e-03  1.30267740e+00  1.88290000e-03  1.00820000e+03  1.91700000e-08  0.00000000e+00
1.98689320e-03  1.30125840e+00  1.88300000e-03  9.98290000e+02  2.04800000e-08  0.00000000e+00
2.00676210e-03  1.29980912e+00  1.88310000e-03  9.88480000e+02  2.18600000e-08  0.00000000e+00
2.02682970e-03  1.29832894e+00  1.88320000e-03  9.78760000e+02  2.33400000e-08  0.00000000e+00
2.04709800e-03  1.29681720e+00  1.88340000e-03  9.69130000e+02  2.49200000e-08  0.00000000e+00
2.06756900e-03  1.29527324e+00  1.88350000e-03  9.59600000e+02  2.65900000e-08  0.00000000e+00
2.08824460e-03  1.29369638e+00  1.88360000e-03  9.50170000e+02  2.83800000e-08  0.00000000e+00
2.10912710e-03  1.29208593e+00  1.88380000e-03  9.40830000e+02  3.02800000e-08  0.00000000e+00
2.13021830e-03  1.29044116e+00  1.88390000e-03  9.31580000e+02  3.23100000e-08  0.00000000e+00
2.15152050e-03  1.28876135e+00  1.88400000e-03  9.22420000e+02  3.44600000e-08  0.00000000e+00
2.17303570e-03  1.28704576e+00  1.88420000e-03  9.13350000e+02  3.67600000e-08  0.00000000e+00
2.19476600e-03  1.28529363e+00  1.88430000e-03  9.04380000e+02  3.92000000e-08  0.00000000e+00
2.21671360e-03  1.28350416e+00  1.88450000e-03  8.95490000e+02  4.18000000e-08  0.00000000e+00
2.23888080e-03  1.28167656e+00  1.88460000e-03  8.86690000e+02  4.45700000e-08  0.00000000e+00
2.26126950e-03  1.27981002e+00  1.88470000e-03  8.77970000e+02  4.75100000e-08  0.00000000e+00
2.28388220e-03  1.27790369e+00  1.88490000e-03  8.69350000e+02  5.06400000e-08  0.00000000e+00
2.30672100e-03  1.27595672e+00  1.88500000e-03  8.60810000e+02  5.39700000e-08  0.00000000e+00
2.32978820e-03  1.27396823e+00  1.88520000e-03  8.52350000e+02  5.75100000e-08  0.00000000e+00
2.35308610e-03  1.27193733e+00  1.88530000e-03  8.43980000e+02  6.12700000e-08  0.00000000e+00
2.37661690e-03  1.26986309e+00  1.88550000e-03  8.35690000e+02  6.52700000e-08  0.00000000e+00
2.40038310e-03  1.26774457e+00  1.88560000e-03  8.27480000e+02  6.95200000e-08  0.00000000e+00
2.42438690e-03  1.26558080e+00  1.88580000e-03  8.19350000e+02  7.40400000e-08  0.00000000e+00
2.44863070e-03  1.26337082e+00  1.88590000e-03  8.11310000e+02  7.88500000e-08  0.00000000e+00
2.47311700e-03  1.26111359e+00  1.88610000e-03  8.03340000e+02  8.39500000e-08  0.00000000e+00
2.49784810e-03  1.25880809e+00  1.88620000e-03  7.95450000e+02  8.93700000e-08  0.00000000e+00
2.52282660e-03  1.25645326e+00  1.88640000e-03  7.87640000e+02  9.51300000e-08  0.00000000e+00
2.54805480e-03  1.25404801e+00  1.88660000e-03  7.79910000e+02  1.01200000e-07  0.00000000e+00
2.57353540e-03  1.25159123e+00  1.88670000e-03  7.72260000e+02  1.07700000e-07  0.00000000e+00
2.59927070e-03  1.24908179e+00  1.88690000e-03  7.64680000e+02  1.14600000e-07  0.00000000e+00
2.62526340e-03  1.24651852e+00  1.88710000e-03  7.57170000e+02  1.22000000e-07  0.00000000e+00
2.65151600e-03  1.24390022e+00  1.88720000e-03  7.49740000e+02  1.29700000e-07  0.00000000e+00
2.67803110e-03  1.24122568e+00  1.88740000e-03  7.42390000e+02  1.38000000e-07  0.00000000e+00
2.70481140e-03  1.23849363e+00  1.88760000e-03  7.35100000e+02  1.46700000e-07  0.00000000e+00
2.73185950e-03  1.23570281e+00  1.88770000e-03  7.27890000e+02  1.56000000e-07  0.00000000e+00
2.75917810e-03  1.23285188e+00  1.88790000e-03  7.20750000e+02  1.65900000e-07  0.00000000e+00
2.78676980e-03  1.22993950e+00  1.88810000e-03  7.13680000e+02  1.76300000e-07  0.00000000e+00
2.81463750e-03  1.22696430e+00  1.88830000e-03  7.06680000e+02  1.87400000e-07  0.00000000e+00
2.84278380e-03  1.22392485e+00  1.88840000e-03  6.99750000e+02  1.99200000e-07  0.00000000e+00
2.87121160e-03  1.22081970e+00  1.88860000e-03  6.92890000e+02  2.11600000e-07  0.00000000e+00
2.89992370e-03  1.21764737e+00  1.88880000e-03  6.86100000e+02  2.24800000e-07  0.00000000e+00
2.92892290e-03  1.21440632e+00  1.88900000e-03  6.79370000e+02  2.38900000e-07  0.00000000e+00
2.95821210e-03  1.21109501e+00  1.88920000e-03  6.72710000e+02  2.53700000e-07  0.00000000e+00
2.98779420e-03  1.20771181e+00  1.88940000e-03  6.66120000e+02  2.69400000e-07  0.00000000e+00
3.01767220e-03  1.20425509e+00  1.88960000e-03  6.59590000e+02  2.86100000e-07  0.00000000e+00
3.04784880e-03  1.20072316e+00  1.88980000e-03  6.53130000e+02  3.03800000e-07  0.00000000e+00
3.07832730e-03  1.19711430e+00  1.89000000e-03  6.46730000e+02  3.22500000e-07  0.00000000e+00
3.10911050e-03  1.19342671e+00  1.89010000e-03  6.40390000e+02  3.42300000e-07  0.00000000e+00
3.14020160e-03  1.18965860e+00  1.89030000e-03  6.34120000e+02  3.63300000e-07  0.00000000e+00
3.17160360e-03  1.18580807e+00  1.89060000e-03  6.27900000e+02  3.85500000e-07  0.00000000e+00
3.20331960e-03  1.18187323e+00  1.89080000e-03  6.21750000e+02  4.09100000e-07  0.00000000e+00
3.23535280e-03  1.17785209e+00  1.89100000e-03  6.15670000e+02  4.34000000e-07  0.00000000e+00
3.26770630e-03  1.17374265e+00  1.89120000e-03  6.09640000e+02  4.60400000e-07  0.00000000e+00
3.30038330e-03  1.16954282e+00  1.89140000e-03  6.03670000e+02  4.88300000e-07  0.00000000e+00
3.33338710e-03  1.16525048e+00  1.89160000e-03  5.97760000e+02  5.17800000e-07  0.00000000e+00
3.36672100e-03  1.16086344e+00  1.89180000e-03  5.91910000e+02  5.49100000e-07  0.00000000e+00
3.40038810e-03  1.15637946e+00  1.89200000e-03  5.86110000e+02  5.82100000e-07  0.00000000e+00
3.43439200e-03  1.15179623e+00  1.89220000e-03  5.80380000e+02  6.17100000e-07  0.00000000e+00
3.46873590e-03  1.14711139e+00  1.89250000e-03  5.74700000e+02  6.54100000e-07  0.00000000e+00
3.50342320e-03  1.14232249e+00  1.89270000e-03  5.69080000e+02  6.93200000e-07  0.00000000e+00
3.53845740e-03  1.13742705e+00  1.89290000e-03  5.63510000e+02  7.34500000e-07  0.00000000e+00
3.57384190e-03  1.13242249e+00  1.89310000e-03  5.58000000e+02  7.78200000e-07  0.00000000e+00
3.60958030e-03  1.12730618e+00  1.89340000e-03  5.52540000e+02  8.24400000e-07  0.00000000e+00
3.64567610e-03  1.12207539e+00  1.89360000e-03  5.47140000e+02  8.73300000e-07  0.00000000e+00
3.68213280e-03  1.11672734e+00  1.89380000e-03  5.41790000e+02  9.24900000e-07  0.00000000e+00
3.71895410e-03  1.11125915e+00  1.89410000e-03  5.36490000e+02  9.79400000e-07  0.00000000e+00
3.75614360e-03  1.10566789e+00  1.89430000e-03  5.31250000e+02  1.03700000e-06  0.00000000e+00
3.79370500e-03  1.09995050e+00  1.89460000e-03  5.26050000e+02  1.09800000e-06  0.00000000e+00
3.83164200e-03  1.09410388e+00  1.89480000e-03  5.20910000e+02  1.16200000e-06  0.00000000e+00
3.86995840e-03  1.08812480e+00  1.89510000e-03  5.15820000e+02  1.23000000e-06  0.00000000e+00
3.90865800e-03  1.08200997e+00  1.89530000e-03  5.10780000e+02  1.30200000e-06  0.00000000e+00
3.94774450e-03  1.07575597e+00  1.89560000e-03  5.05790000e+02  1.37700000e-06  0.00000000e+00
3.98722190e-03  1.06935930e+00  1.89580000e-03  5.00850000e+02  1.45700000e-06  0.00000000e+00
4.02709410e-03  1.06281636e+00  1.89610000e-03  4.95960000e+02  1.54200000e-06  0.00000000e+00
4.06736500e-03  1.05612343e+00  1.89630000e-03  4.91120000e+02  1.63100000e-06  0.00000000e+00
4.10803860e-03  1.04927668e+00  1.89660000e-03  4.86320000e+02  1.72500000e-06  0.00000000e+00
4.14911890e-03  1.04227217e+00  1.89690000e-03  4.81580000e+02  1.82400000e-06  0.00000000e+00
4.19061010e-03  1.03510584e+00  1.89710000e-03  4.76880000e+02  1.92800000e-06  0.00000000e+00
4.23251620e-03  1.02777350e+00  1.89740000e-03  4.72220000e+02  2.03800000e-06  0.00000000e+00
4.27484130e-03  1.02027083e+00  1.89770000e-03  4.67620000e+02  2.15500000e-06  0.00000000e+00
4.31758960e-03  1.01259338e+00  1.89800000e-03  4.63050000e+02  2.27700000e-06  0.00000000e+00
4.36076550e-03  1.00473655e+00  1.89830000e-03  4.58540000e+02  2.40700000e-06  0.00000000e+00
4.40437310e-03  9.96695620e-01  1.89850000e-03  4.54070000e+02  2.54300000e-06  0.00000000e+00
4.44841680e-03  9.88465692e-01  1.89880000e-03  4.49640000e+02  2.68700000e-06  0.00000000e+00
4.49290090e-03  9.80041724e-01  1.89910000e-03  4.45250000e+02  2.83800000e-06  0.00000000e+00
4.53782990e-03  9.71418510e-01  1.89940000e-03  4.40910000e+02  2.99800000e-06  0.00000000e+00
4.58320820e-03  9.62590673e-01  1.89970000e-03  4.36620000e+02  3.16600000e-06  0.00000000e+00
4.62904020e-03  9.53552659e-01  1.90000000e-03  4.32360000e+02  3.34300000e-06  0.00000000e+00
4.67533060e-03  9.44298734e-01  1.90030000e-03  4.28150000e+02  3.53000000e-06  0.00000000e+00
4.72208380e-03  9.34822967e-01  1.90060000e-03  4.23980000e+02  3.72600000e-06  0.00000000e+00
4.76930460e-03  9.25119232e-01  1.90090000e-03  4.19850000e+02  3.93300000e-06  0.00000000e+00
4.81699760e-03  9.15181194e-01  1.90120000e-03  4.15760000e+02  4.15100000e-06  0.00000000e+00
4.86516750e-03  9.05002301e-01  1.90160000e-03  4.11710000e+02  4.38100000e-06  0.00000000e+00
4.91381920e-03  8.94575775e-01  1.90190000e-03  4.07710000e+02  4.62300000e-06  0.00000000e+00
4.96295730e-03  8.83894602e-01  1.90220000e-03  4.03740000e+02  4.87700000e-06  0.00000000e+00
5.01258680e-03  8.72951523e-01  1.90250000e-03  3.99810000e+02  5.14500000e-06  0.00000000e+00
5.06271270e-03  8.61739018e-01  1.90290000e-03  3.95920000e+02  5.42600000e-06  0.00000000e+00
5.11333970e-03  8.50249304e-01  1.90320000e-03  3.92070000e+02  5.72300000e-06  0.00000000e+00
5.16447310e-03  8.38474313e-01  1.90350000e-03  3.88250000e+02  6.03500000e-06  0.00000000e+00
5.21611780e-03  8.26405684e-01  1.90390000e-03  3.84480000e+02  6.36300000e-06  0.00000000e+00
5.26827890e-03  8.14034748e-01  1.90420000e-03  3.80740000e+02  6.70800000e-06  0.00000000e+00
5.32096160e-03  8.01352517e-01  1.90460000e-03  3.77040000e+02  7.07000000e-06  0.00000000e+00
5.37417120e-03  7.88349663e-01  1.90490000e-03  3.73380000e+02  7.45200000e-06  0.00000000e+00
5.42791290e-03  7.75016505e-01  1.90530000e-03  3.69750000e+02  7.85300000e-06  0.00000000e+00
5.48219190e-03  7.61342994e-01  1.90560000e-03  3.66160000e+02  8.27500000e-06  0.00000000e+00
5.53701380e-03  7.47318690e-01  1.90600000e-03  3.62600000e+02  8.71800000e-06  0.00000000e+00
5.59238390e-03  7.32932746e-01  1.90640000e-03  3.59080000e+02  9.18400000e-06  0.00000000e+00
5.64830770e-03  7.18173890e-01  1.90670000e-03  3.55590000e+02  9.67300000e-06  0.00000000e+00
5.70479070e-03  7.03030396e-01  1.90710000e-03  3.52140000e+02  1.01900000e-05  0.00000000e+00
5.76183850e-03  6.87490068e-01  1.90750000e-03  3.48730000e+02  1.07300000e-05  0.00000000e+00
5.81945690e-03  6.71540213e-01  1.90790000e-03  3.45340000e+02  1.12900000e-05  0.00000000e+00
5.87765140e-03  6.55167614e-01  1.90830000e-03  3.41990000e+02  1.18900000e-05  0.00000000e+00
5.93642780e-03  6.38358505e-01  1.90870000e-03  3.38680000e+02  1.25200000e-05  0.00000000e+00
5.99579210e-03  6.21098539e-01  1.90900000e-03  3.35390000e+02  1.31700000e-05  0.00000000e+00
6.05574990e-03  6.03372760e-01  1.90950000e-03  3.32140000e+02  1.38600000e-05  0.00000000e+00
6.11630740e-03  5.85165569e-01  1.90990000e-03  3.28920000e+02  1.45900000e-05  0.00000000e+00
6.17747040e-03  5.66460688e-01  1.91030000e-03  3.25740000e+02  1.53500000e-05  0.00000000e+00
6.23924500e-03  5.47241128e-01  1.91070000e-03  3.22580000e+02  1.61500000e-05  0.00000000e+00
6.30163740e-03  5.27489153e-01  1.91110000e-03  3.19460000e+02  1.69800000e-05  0.00000000e+00
6.36465370e-03  5.07186239e-01  1.91150000e-03  3.16370000e+02  1.78600000e-05  0.00000000e+00
6.42830020e-03  4.86313037e-01  1.91200000e-03  3.13300000e+02  1.87800000e-05  0.00000000e+00
6.49258320e-03  4.64886251e-01  1.91240000e-03  3.10270000e+02  1.97500000e-05  0.00000000e+00
6.55750890e-03  4.42811318e-01  1.91280000e-03  3.07270000e+02  2.07600000e-05  0.00000000e+00
6.62308400e-03  4.20102061e-01  1.91330000e-03  3.04300000e+02  2.18300000e-05  0.00000000e+00
6.68931470e-03  3.96735095e-01  1.91370000e-03  3.01360000e+02  2.29400000e-05  0.00000000e+00
6.75620780e-03  3.72674025e-01  1.91420000e-03  2.98440000e+02  2.41100000e-05  0.00000000e+00
6.82376980e-03  3.47916533e-01  1.91460000e-03  2.95560000e+02  2.53300000e-05  0.00000000e+00
6.89200750e-03  3.22423970e-01  1.91510000e-03  2.92700000e+02  2.66200000e-05  0.00000000e+00
6.96092750e-03  2.96167886e-01  1.91560000e-03  2.89880000e+02  2.79600000e-05  0.00000000e+00
7.03053670e-03  2.69118351e-01  1.91600000e-03  2.87080000e+02  2.93700000e-05  0.00000000e+00
7.10084200e-03  2.41243849e-01  1.91650000e-03  2.84300000e+02  3.08500000e-05  0.00000000e+00
7.17185030e-03  2.12511172e-01  1.91700000e-03  2.81560000e+02  3.24000000e-05  0.00000000e+00
7.24356880e-03  1.82885299e-01  1.91750000e-03  2.78840000e+02  3.40200000e-05  0.00000000e+00
