#  Sc:    Z = 21;   Atomic weight = 44.95590 g/mol ;    nominal density:   [INLINE] = 2.9800E+00 g/cm3
#         a(barns/atom) = (cm2/g)    7.46511E+01
#         E(eV) (cm2/g) = f2(e/atom)    9.36035E+05
#         7 edges. Edge energies (keV):
# K      4.49280E+00  L I    5.00400E-01  L II   4.06700E-01  L III  4.02200E-01
# M I    5.38000E-02  M II   3.23000E-02  M III  3.23000E-02
#         Relativistic correction estimate frel (H82,3/5CL) = -6.5705E-02, -4.0800E-02 e/atom
#         Nuclear Thomson correction fNT = -5.3814E-03 e/atom
#    _________________________________________________________________________________________________________
#  Form Factors, Attenuation and Scattering Cross-sections
#  Z=21, E = 0.001 - 1000 keV
#                                                             Attenuation
#    E         f1            f2                     [INLINE] (coh+inc) Coefficient    K       wavelength
#    keV       e/atom       e/atom      cm2/g       cm2/g      cm2/g          cm2/g        nm
1.01000000e-03  8.48373266e+00  3.44630000e-03  3.19390000e+03  5.69100000e-11  0.00000000e+00
1.02010000e-03  8.48428305e+00  3.44660000e-03  3.16260000e+03  6.15300000e-11  0.00000000e+00
1.03030100e-03  8.48468153e+00  3.44690000e-03  3.13160000e+03  6.65100000e-11  0.00000000e+00
1.04060400e-03  8.48500020e+00  3.44720000e-03  3.10080000e+03  7.18800000e-11  0.00000000e+00
1.05101010e-03  8.48526797e+00  3.44760000e-03  3.07040000e+03  7.76700000e-11  0.00000000e+00
1.06152010e-03  8.48549971e+00  3.44790000e-03  3.04030000e+03  8.39200000e-11  0.00000000e+00
1.07213530e-03  8.48570425e+00  3.44820000e-03  3.01050000e+03  9.06600000e-11  0.00000000e+00
1.08285670e-03  8.48588735e+00  3.44860000e-03  2.98100000e+03  9.79300000e-11  0.00000000e+00
1.09368520e-03  8.48605305e+00  3.44890000e-03  2.95180000e+03  1.05800000e-10  0.00000000e+00
1.10462210e-03  8.48620429e+00  3.44920000e-03  2.92280000e+03  1.14200000e-10  0.00000000e+00
1.11566830e-03  8.48634329e+00  3.44960000e-03  2.89420000e+03  1.23300000e-10  0.00000000e+00
1.12682500e-03  8.48647178e+00  3.44990000e-03  2.86580000e+03  1.33100000e-10  0.00000000e+00
1.13809320e-03  8.48659116e+00  3.45030000e-03  2.83770000e+03  1.43700000e-10  0.00000000e+00
1.14947410e-03  8.48670252e+00  3.45060000e-03  2.80990000e+03  1.55100000e-10  0.00000000e+00
1.16096880e-03  8.48680680e+00  3.45100000e-03  2.78240000e+03  1.67400000e-10  0.00000000e+00
1.17257850e-03  8.48690474e+00  3.45130000e-03  2.75510000e+03  1.80600000e-10  0.00000000e+00
1.18430430e-03  8.48699699e+00  3.45170000e-03  2.72810000e+03  1.94800000e-10  0.00000000e+00
1.19614730e-03  8.48708409e+00  3.45210000e-03  2.70140000e+03  2.10100000e-10  0.00000000e+00
1.20810880e-03  8.48716650e+00  3.45250000e-03  2.67490000e+03  2.26600000e-10  0.00000000e+00
1.22018990e-03  8.48724463e+00  3.45280000e-03  2.64870000e+03  2.44400000e-10  0.00000000e+00
1.23239180e-03  8.48731882e+00  3.45320000e-03  2.62280000e+03  2.63500000e-10  0.00000000e+00
1.24471570e-03  8.48738937e+00  3.45360000e-03  2.59710000e+03  2.84000000e-10  0.00000000e+00
1.25716280e-03  8.48745655e+00  3.45400000e-03  2.57170000e+03  3.06100000e-10  0.00000000e+00
1.26973440e-03  8.48752059e+00  3.45440000e-03  2.54650000e+03  3.29900000e-10  0.00000000e+00
1.28243180e-03  8.48758170e+00  3.45480000e-03  2.52160000e+03  3.55500000e-10  0.00000000e+00
1.29525610e-03  8.48764005e+00  3.45520000e-03  2.49690000e+03  3.83100000e-10  0.00000000e+00
1.30820860e-03  8.48769581e+00  3.45560000e-03  2.47250000e+03  4.12700000e-10  0.00000000e+00
1.32129070e-03  8.48774913e+00  3.45600000e-03  2.44830000e+03  4.44500000e-10  0.00000000e+00
1.33450360e-03  8.48780013e+00  3.45640000e-03  2.42440000e+03  4.78700000e-10  0.00000000e+00
1.34784860e-03  8.48784893e+00  3.45680000e-03  2.40060000e+03  5.15500000e-10  0.00000000e+00
1.36132710e-03  8.48789564e+00  3.45720000e-03  2.37720000e+03  5.55000000e-10  0.00000000e+00
1.37494030e-03  8.48794035e+00  3.45770000e-03  2.35390000e+03  5.97400000e-10  0.00000000e+00
1.38868970e-03  8.48798314e+00  3.45810000e-03  2.33090000e+03  6.43000000e-10  0.00000000e+00
1.40257660e-03  8.48802410e+00  3.45850000e-03  2.30810000e+03  6.92000000e-10  0.00000000e+00
1.41660240e-03  8.48806329e+00  3.45900000e-03  2.28560000e+03  7.44700000e-10  0.00000000e+00
1.43076840e-03  8.48810077e+00  3.45940000e-03  2.26320000e+03  8.01200000e-10  0.00000000e+00
1.44507600e-03  8.48813661e+00  3.45990000e-03  2.24110000e+03  8.61900000e-10  0.00000000e+00
1.45952680e-03  8.48817085e+00  3.46030000e-03  2.21920000e+03  9.27000000e-10  0.00000000e+00
1.47412200e-03  8.48820355e+00  3.46080000e-03  2.19750000e+03  9.97000000e-10  0.00000000e+00
1.48886320e-03  8.48823474e+00  3.46120000e-03  2.17610000e+03  1.07200000e-09  0.00000000e+00
1.50375190e-03  8.48826446e+00  3.46170000e-03  2.15480000e+03  1.15300000e-09  0.00000000e+00
1.51878940e-03  8.48829274e+00  3.46220000e-03  2.13380000e+03  1.23900000e-09  0.00000000e+00
1.53397720e-03  8.48831963e+00  3.46270000e-03  2.11290000e+03  1.33200000e-09  0.00000000e+00
1.54931700e-03  8.48834514e+00  3.46320000e-03  2.09230000e+03  1.43100000e-09  0.00000000e+00
1.56481020e-03  8.48836931e+00  3.46360000e-03  2.07190000e+03  1.53800000e-09  0.00000000e+00
1.58045820e-03  8.48839216e+00  3.46410000e-03  2.05170000e+03  1.65200000e-09  0.00000000e+00
1.59626280e-03  8.48841370e+00  3.46460000e-03  2.03160000e+03  1.77500000e-09  0.00000000e+00
1.61222540e-03  8.48843395e+00  3.46510000e-03  2.01180000e+03  1.90600000e-09  0.00000000e+00
1.62834770e-03  8.48845294e+00  3.46560000e-03  1.99220000e+03  2.04700000e-09  0.00000000e+00
1.64463110e-03  8.48847067e+00  3.46620000e-03  1.97280000e+03  2.19800000e-09  0.00000000e+00
1.66107740e-03  8.48848716e+00  3.46670000e-03  1.95350000e+03  2.36000000e-09  0.00000000e+00
1.67768820e-03  8.48850242e+00  3.46720000e-03  1.93450000e+03  2.53300000e-09  0.00000000e+00
1.69446500e-03  8.48851645e+00  3.46770000e-03  1.91560000e+03  2.71900000e-09  0.00000000e+00
1.71140970e-03  8.48852927e+00  3.46830000e-03  1.89690000e+03  2.91800000e-09  0.00000000e+00
1.72852380e-03  8.48854089e+00  3.46880000e-03  1.87840000e+03  3.13100000e-09  0.00000000e+00
1.74580900e-03  8.48855129e+00  3.46940000e-03  1.86010000e+03  3.35900000e-09  0.00000000e+00
1.76326710e-03  8.48856050e+00  3.46990000e-03  1.84200000e+03  3.60300000e-09  0.00000000e+00
1.78089970e-03  8.48856850e+00  3.47050000e-03  1.82410000e+03  3.86500000e-09  0.00000000e+00
1.79870870e-03  8.48857531e+00  3.47110000e-03  1.80630000e+03  4.14500000e-09  0.00000000e+00
1.81669580e-03  8.48858092e+00  3.47160000e-03  1.78870000e+03  4.44400000e-09  0.00000000e+00
1.83486270e-03  8.48858533e+00  3.47220000e-03  1.77130000e+03  4.76500000e-09  0.00000000e+00
1.85321130e-03  8.48858854e+00  3.47280000e-03  1.75410000e+03  5.10800000e-09  0.00000000e+00
1.87174340e-03  8.48859055e+00  3.47340000e-03  1.73700000e+03  5.47400000e-09  0.00000000e+00
1.89046080e-03  8.48859134e+00  3.47400000e-03  1.72010000e+03  5.86700000e-09  0.00000000e+00
1.90936540e-03  8.48859092e+00  3.47460000e-03  1.70340000e+03  6.28600000e-09  0.00000000e+00
1.92845900e-03  8.48858928e+00  3.47520000e-03  1.68680000e+03  6.73500000e-09  0.00000000e+00
1.94774360e-03  8.48858641e+00  3.47580000e-03  1.67040000e+03  7.21400000e-09  0.00000000e+00
1.96722100e-03  8.48858231e+00  3.47640000e-03  1.65410000e+03  7.72700000e-09  0.00000000e+00
1.98689320e-03  8.48857696e+00  3.47710000e-03  1.63810000e+03  8.27400000e-09  0.00000000e+00
2.00676210e-03  8.48857035e+00  3.47770000e-03  1.62210000e+03  8.86000000e-09  0.00000000e+00
2.02682970e-03  8.48856248e+00  3.47830000e-03  1.60640000e+03  9.48500000e-09  0.00000000e+00
2.04709800e-03  8.48855334e+00  3.47900000e-03  1.59080000e+03  1.01500000e-08  0.00000000e+00
2.06756900e-03  8.48854291e+00  3.47960000e-03  1.57530000e+03  1.08700000e-08  0.00000000e+00
2.08824460e-03  8.48853118e+00  3.48030000e-03  1.56000000e+03  1.16300000e-08  0.00000000e+00
2.10912710e-03  8.48851813e+00  3.48100000e-03  1.54490000e+03  1.24400000e-08  0.00000000e+00
2.13021830e-03  8.48850376e+00  3.48170000e-03  1.52990000e+03  1.33100000e-08  0.00000000e+00
2.15152050e-03  8.48848804e+00  3.48230000e-03  1.51500000e+03  1.42400000e-08  0.00000000e+00
2.17303570e-03  8.48847097e+00  3.48300000e-03  1.50030000e+03  1.52300000e-08  0.00000000e+00
2.19476600e-03  8.48845252e+00  3.48370000e-03  1.48580000e+03  1.62900000e-08  0.00000000e+00
2.21671360e-03  8.48843267e+00  3.48440000e-03  1.47140000e+03  1.74200000e-08  0.00000000e+00
2.23888080e-03  8.48841142e+00  3.48520000e-03  1.45710000e+03  1.86200000e-08  0.00000000e+00
2.26126950e-03  8.48838874e+00  3.48590000e-03  1.44300000e+03  1.99100000e-08  0.00000000e+00
2.28388220e-03  8.48836461e+00  3.48660000e-03  1.42900000e+03  2.12800000e-08  0.00000000e+00
2.30672100e-03  8.48833901e+00  3.48740000e-03  1.41510000e+03  2.27400000e-08  0.00000000e+00
2.32978820e-03  8.48831192e+00  3.48810000e-03  1.40140000e+03  2.42900000e-08  0.00000000e+00
2.35308610e-03  8.48828332e+00  3.48890000e-03  1.38780000e+03  2.59500000e-08  0.00000000e+00
2.37661690e-03  8.48825319e+00  3.48960000e-03  1.37440000e+03  2.77300000e-08  0.00000000e+00
2.40038310e-03  8.48822150e+00  3.49040000e-03  1.36110000e+03  2.96100000e-08  0.00000000e+00
2.42438690e-03  8.48818823e+00  3.49120000e-03  1.34790000e+03  3.16200000e-08  0.00000000e+00
2.44863070e-03  8.48815336e+00  3.49200000e-03  1.33490000e+03  3.37700000e-08  0.00000000e+00
2.47311700e-03  8.48811686e+00  3.49280000e-03  1.32200000e+03  3.60500000e-08  0.00000000e+00
2.49784810e-03  8.48807871e+00  3.49360000e-03  1.30920000e+03  3.84800000e-08  0.00000000e+00
2.52282660e-03  8.48803887e+00  3.49440000e-03  1.29650000e+03  4.10800000e-08  0.00000000e+00
2.54805480e-03  8.48799732e+00  3.49520000e-03  1.28400000e+03  4.38400000e-08  0.00000000e+00
2.57353540e-03  8.48795404e+00  3.49600000e-03  1.27160000e+03  4.67700000e-08  0.00000000e+00
2.59927070e-03  8.48790898e+00  3.49690000e-03  1.25930000e+03  4.99000000e-08  0.00000000e+00
2.62526340e-03  8.48786214e+00  3.49770000e-03  1.24710000e+03  5.32300000e-08  0.00000000e+00
2.65151600e-03  8.48781346e+00  3.49860000e-03  1.23510000e+03  5.67800000e-08  0.00000000e+00
2.67803110e-03  8.48776293e+00  3.49940000e-03  1.22310000e+03  6.05500000e-08  0.00000000e+00
2.70481140e-03  8.48771050e+00  3.50030000e-03  1.21130000e+03  6.45700000e-08  0.00000000e+00
2.73185950e-03  8.48765615e+00  3.50120000e-03  1.19960000e+03  6.88400000e-08  0.00000000e+00
2.75917810e-03  8.48759984e+00  3.50210000e-03  1.18810000e+03  7.33800000e-08  0.00000000e+00
2.78676980e-03  8.48754154e+00  3.50300000e-03  1.17660000e+03  7.82200000e-08  0.00000000e+00
2.81463750e-03  8.48748121e+00  3.50390000e-03  1.16530000e+03  8.33600000e-08  0.00000000e+00
2.84278380e-03  8.48741882e+00  3.50490000e-03  1.15400000e+03  8.88200000e-08  0.00000000e+00
2.87121160e-03  8.48735432e+00  3.50580000e-03  1.14290000e+03  9.46300000e-08  0.00000000e+00
2.89992370e-03  8.48728768e+00  3.50680000e-03  1.13190000e+03  1.00800000e-07  0.00000000e+00
2.92892290e-03  8.48721886e+00  3.50770000e-03  1.12100000e+03  1.07400000e-07  0.00000000e+00
2.95821210e-03  8.48714782e+00  3.50870000e-03  1.11020000e+03  1.14400000e-07  0.00000000e+00
2.98779420e-03  8.48707452e+00  3.50970000e-03  1.09950000e+03  1.21800000e-07  0.00000000e+00
3.01767220e-03  8.48699891e+00  3.51070000e-03  1.08890000e+03  1.29700000e-07  0.00000000e+00
3.04784880e-03  8.48692096e+00  3.51170000e-03  1.07850000e+03  1.38000000e-07  0.00000000e+00
3.07832730e-03  8.48684061e+00  3.51270000e-03  1.06810000e+03  1.46900000e-07  0.00000000e+00
3.10911050e-03  8.48675783e+00  3.51370000e-03  1.05780000e+03  1.56400000e-07  0.00000000e+00
3.14020160e-03  8.48667256e+00  3.51470000e-03  1.04770000e+03  1.66400000e-07  0.00000000e+00
3.17160360e-03  8.48658477e+00  3.51580000e-03  1.03760000e+03  1.77000000e-07  0.00000000e+00
3.20331960e-03  8.48649439e+00  3.51680000e-03  1.02760000e+03  1.88300000e-07  0.00000000e+00
3.23535280e-03  8.48640139e+00  3.51790000e-03  1.01780000e+03  2.00300000e-07  0.00000000e+00
3.26770630e-03  8.48630570e+00  3.51900000e-03  1.00800000e+03  2.13100000e-07  0.00000000e+00
3.30038330e-03  8.48620729e+00  3.52010000e-03  9.98340000e+02  2.26600000e-07  0.00000000e+00
3.33338710e-03  8.48610609e+00  3.52120000e-03  9.88770000e+02  2.40900000e-07  0.00000000e+00
3.36672100e-03  8.48600205e+00  3.52230000e-03  9.79290000e+02  2.56100000e-07  0.00000000e+00
3.40038810e-03  8.48589512e+00  3.52340000e-03  9.69910000e+02  2.72200000e-07  0.00000000e+00
3.43439200e-03  8.48578524e+00  3.52460000e-03  9.60620000e+02  2.89300000e-07  0.00000000e+00
3.46873590e-03  8.48567235e+00  3.52570000e-03  9.51420000e+02  3.07500000e-07  0.00000000e+00
3.50342320e-03  8.48555639e+00  3.52690000e-03  9.42310000e+02  3.26700000e-07  0.00000000e+00
3.53845740e-03  8.48543730e+00  3.52810000e-03  9.33290000e+02  3.47100000e-07  0.00000000e+00
3.57384190e-03  8.48531502e+00  3.52930000e-03  9.24370000e+02  3.68700000e-07  0.00000000e+00
3.60958030e-03  8.48518949e+00  3.53050000e-03  9.15530000e+02  3.91600000e-07  0.00000000e+00
3.64567610e-03  8.48506064e+00  3.53170000e-03  9.06780000e+02  4.15800000e-07  0.00000000e+00
3.68213280e-03  8.48492841e+00  3.53300000e-03  8.98110000e+02  4.41500000e-07  0.00000000e+00
3.71895410e-03  8.48479272e+00  3.53420000e-03  8.89540000e+02  4.68800000e-07  0.00000000e+00
3.75614360e-03  8.48465351e+00  3.53550000e-03  8.81040000e+02  4.97600000e-07  0.00000000e+00
3.79370500e-03  8.48451070e+00  3.53680000e-03  8.72640000e+02  5.28200000e-07  0.00000000e+00
3.83164200e-03  8.48436423e+00  3.53800000e-03  8.64310000e+02  5.60500000e-07  0.00000000e+00
3.86995840e-03  8.48421403e+00  3.53940000e-03  8.56070000e+02  5.94800000e-07  0.00000000e+00
3.90865800e-03  8.48406001e+00  3.54070000e-03  8.47910000e+02  6.31100000e-07  0.00000000e+00
3.94774450e-03  8.48390209e+00  3.54200000e-03  8.39840000e+02  6.69400000e-07  0.00000000e+00
3.98722190e-03  8.48374021e+00  3.54340000e-03  8.31840000e+02  7.10100000e-07  0.00000000e+00
4.02709410e-03  8.48357427e+00  3.54470000e-03  8.23920000e+02  7.53100000e-07  0.00000000e+00
4.06736500e-03  8.48340420e+00  3.54610000e-03  8.16080000e+02  7.98600000e-07  0.00000000e+00
4.10803860e-03  8.48322992e+00  3.54750000e-03  8.08320000e+02  8.46700000e-07  0.00000000e+00
4.14911890e-03  8.48305132e+00  3.54890000e-03  8.00640000e+02  8.97600000e-07  0.00000000e+00
4.19061010e-03  8.48286834e+00  3.55040000e-03  7.93030000e+02  9.51400000e-07  0.00000000e+00
4.23251620e-03  8.48268087e+00  3.55180000e-03  7.85500000e+02  1.00800000e-06  0.00000000e+00
4.27484130e-03  8.48248883e+00  3.55330000e-03  7.78040000e+02  1.06900000e-06  0.00000000e+00
4.31758960e-03  8.48229212e+00  3.55480000e-03  7.70660000e+02  1.13200000e-06  0.00000000e+00
4.36076550e-03  8.48209065e+00  3.55630000e-03  7.63350000e+02  1.19900000e-06  0.00000000e+00
4.40437310e-03  8.48188431e+00  3.55780000e-03  7.56120000e+02  1.27100000e-06  0.00000000e+00
4.44841680e-03  8.48167301e+00  3.55930000e-03  7.48960000e+02  1.34600000e-06  0.00000000e+00
4.49290090e-03  8.48145664e+00  3.56090000e-03  7.41860000e+02  1.42500000e-06  0.00000000e+00
4.53782990e-03  8.48123510e+00  3.56250000e-03  7.34840000e+02  1.50900000e-06  0.00000000e+00
4.58320820e-03  8.48100829e+00  3.56410000e-03  7.27890000e+02  1.59800000e-06  0.00000000e+00
4.62904020e-03  8.48077608e+00  3.56570000e-03  7.21010000e+02  1.69100000e-06  0.00000000e+00
4.67533060e-03  8.48053837e+00  3.56730000e-03  7.14200000e+02  1.79000000e-06  0.00000000e+00
4.72208380e-03  8.48029505e+00  3.56890000e-03  7.07450000e+02  1.89400000e-06  0.00000000e+00
4.76930460e-03  8.48004599e+00  3.57060000e-03  7.00780000e+02  2.00500000e-06  0.00000000e+00
4.81699760e-03  8.47979109e+00  3.57230000e-03  6.94170000e+02  2.12100000e-06  0.00000000e+00
4.86516750e-03  8.47953020e+00  3.57400000e-03  6.87620000e+02  2.24400000e-06  0.00000000e+00
4.91381920e-03  8.47926322e+00  3.57570000e-03  6.81140000e+02  2.37300000e-06  0.00000000e+00
4.96295730e-03  8.47899000e+00  3.57750000e-03  6.74730000e+02  2.51000000e-06  0.00000000e+00
5.01258680e-03  8.47871043e+00  3.57920000e-03  6.68380000e+02  2.65400000e-06  0.00000000e+00
5.06271270e-03  8.47842436e+00  3.58100000e-03  6.62090000e+02  2.80600000e-06  0.00000000e+00
5.11333970e-03  8.47813166e+00  3.58280000e-03  6.55870000e+02  2.96700000e-06  0.00000000e+00
5.16447310e-03  8.47783219e+00  3.58470000e-03  6.49700000e+02  3.13600000e-06  0.00000000e+00
5.21611780e-03  8.47752580e+00  3.58650000e-03  6.43600000e+02  3.31500000e-06  0.00000000e+00
5.26827890e-03  8.47721235e+00  3.58840000e-03  6.37560000e+02  3.50300000e-06  0.00000000e+00
5.32096160e-03  8.47689169e+00  3.59030000e-03  6.31590000e+02  3.70100000e-06  0.00000000e+00
5.37417120e-03  8.47656366e+00  3.59220000e-03  6.25670000e+02  3.91000000e-06  0.00000000e+00
5.42791290e-03  8.47622811e+00  3.59420000e-03  6.19810000e+02  4.13100000e-06  0.00000000e+00
5.48219190e-03  8.47588488e+00  3.59610000e-03  6.14010000e+02  4.36300000e-06  0.00000000e+00
5.53701380e-03  8.47553380e+00  3.59810000e-03  6.08260000e+02  4.60800000e-06  0.00000000e+00
5.59238390e-03  8.47517470e+00  3.60010000e-03  6.02580000e+02  4.86500000e-06  0.00000000e+00
5.64830770e-03  8.47480742e+00  3.60220000e-03  5.96950000e+02  5.13700000e-06  0.00000000e+00
5.70479070e-03  8.47443177e+00  3.60420000e-03  5.91380000e+02  5.42300000e-06  0.00000000e+00
5.76183850e-03  8.47404758e+00  3.60630000e-03  5.85860000e+02  5.72400000e-06  0.00000000e+00
5.81945690e-03  8.47365466e+00  3.60840000e-03  5.80400000e+02  6.04100000e-06  0.00000000e+00
5.87765140e-03  8.47325282e+00  3.61060000e-03  5.74990000e+02  6.37500000e-06  0.00000000e+00
5.93642780e-03  8.47284188e+00  3.61270000e-03  5.69640000e+02  6.72700000e-06  0.00000000e+00
5.99579210e-03  8.47242163e+00  3.61490000e-03  5.64350000e+02  7.09600000e-06  0.00000000e+00
6.05574990e-03  8.47199187e+00  3.61710000e-03  5.59100000e+02  7.48600000e-06  0.00000000e+00
6.11630740e-03  8.47155239e+00  3.61940000e-03  5.53910000e+02  7.89500000e-06  0.00000000e+00
6.17747040e-03  8.47110299e+00  3.62170000e-03  5.48770000e+02  8.32600000e-06  0.00000000e+00
6.23924500e-03  8.47064344e+00  3.62400000e-03  5.43680000e+02  8.78000000e-06  0.00000000e+00
6.30163740e-03  8.47017352e+00  3.62630000e-03  5.38640000e+02  9.25700000e-06  0.00000000e+00
6.36465370e-03  8.46969301e+00  3.62870000e-03  5.33660000e+02  9.75800000e-06  0.00000000e+00
6.42830020e-03  8.46920168e+00  3.63100000e-03  5.28720000e+02  1.02900000e-05  0.00000000e+00
6.49258320e-03  8.46869928e+00  3.63350000e-03  5.23840000e+02  1.08400000e-05  0.00000000e+00
6.55750890e-03  8.46818557e+00  3.63590000e-03  5.19000000e+02  1.14200000e-05  0.00000000e+00
6.62308400e-03  8.46766030e+00  3.63840000e-03  5.14210000e+02  1.20400000e-05  0.00000000e+00
6.68931470e-03  8.46712321e+00  3.64090000e-03  5.09470000e+02  1.26800000e-05  0.00000000e+00
6.75620780e-03  8.46657405e+00  3.64340000e-03  5.04780000e+02  1.33600000e-05  0.00000000e+00
6.82376980e-03  8.46601255e+00  3.64600000e-03  5.00130000e+02  1.40700000e-05  0.00000000e+00
6.89200750e-03  8.46543842e+00  3.64860000e-03  4.95540000e+02  1.48100000e-05  0.00000000e+00
6.96092750e-03  8.46485139e+00  3.65130000e-03  4.90980000e+02  1.56000000e-05  0.00000000e+00
7.03053670e-03  8.46425117e+00  3.65390000e-03  4.86480000e+02  1.64200000e-05  0.00000000e+00
7.10084200e-03  8.46363746e+00  3.65660000e-03  4.82020000e+02  1.72900000e-05  0.00000000e+00
7.17185030e-03  8.46305743e+00  3.65940000e-03  4.77600000e+02  1.82000000e-05  0.00000000e+00
7.24356880e-03  8.46241635e+00  3.66220000e-03  4.73230000e+02  1.91500000e-05  0.00000000e+00
