#  Co:    Z = 27;   Atomic weight = 58.93320 g/mol ;    nominal density:   [INLINE] = 8.9000E+00 g/cm3
#         a(barns/atom) = (cm2/g)    9.78609E+01
#         E(eV) (cm2/g) = f2(e/atom)    7.14034E+05
#         9 edges. Edge energies (keV):
# K      7.70890E+00  L I    9.25600E-01  L II   7.93600E-01  L III  7.78600E-01
# M I    1.00700E-01  M II   5.95000E-02  M III  5.95000E-02  M IV   2.90000E-03
# M V    2.90000E-03
#         Relativistic correction estimate frel (H82,3/5CL) = -1.1819E-01, -7.3800E-02 e/atom
#         Nuclear Thomson correction fNT = -6.7859E-03 e/atom
#    _________________________________________________________________________________________________________
#  Form Factors, Attenuation and Scattering Cross-sections
#  Z=27, E = 0.001 - 1000 keV
#                                                             Attenuation
#    E         f1            f2                     [INLINE] (coh+inc) Coefficient    K       wavelength
#    keV       e/atom       e/atom      cm2/g       cm2/g      cm2/g          cm2/g        nm
1.01000000e-03  4.15368116e+00  2.30500000e-02  1.62950000e+04  4.07600000e-11  0.00000000e+00
1.02010000e-03  4.15833760e+00  2.30580000e-02  1.61400000e+04  4.41500000e-11  0.00000000e+00
1.03030100e-03  4.16046736e+00  2.30660000e-02  1.59860000e+04  4.78100000e-11  0.00000000e+00
1.04060400e-03  4.16195808e+00  2.30750000e-02  1.58330000e+04  5.17700000e-11  0.00000000e+00
1.05101010e-03  4.16284795e+00  2.30830000e-02  1.56820000e+04  5.60600000e-11  0.00000000e+00
1.06152010e-03  4.16344498e+00  2.30920000e-02  1.55330000e+04  6.06800000e-11  0.00000000e+00
1.07213530e-03  4.16382867e+00  2.31010000e-02  1.53850000e+04  6.56800000e-11  0.00000000e+00
1.08285670e-03  4.16404817e+00  2.31100000e-02  1.52390000e+04  7.10800000e-11  0.00000000e+00
1.09368520e-03  4.16413587e+00  2.31190000e-02  1.50940000e+04  7.69200000e-11  0.00000000e+00
1.10462210e-03  4.16411417e+00  2.31290000e-02  1.49510000e+04  8.32200000e-11  0.00000000e+00
1.11566830e-03  4.16399911e+00  2.31380000e-02  1.48090000e+04  9.00200000e-11  0.00000000e+00
1.12682500e-03  4.16380257e+00  2.31480000e-02  1.46680000e+04  9.73600000e-11  0.00000000e+00
1.13809320e-03  4.16362798e+00  2.31580000e-02  1.45290000e+04  1.05300000e-10  0.00000000e+00
1.14947410e-03  4.16328215e+00  2.31680000e-02  1.43920000e+04  1.13800000e-10  0.00000000e+00
1.16096880e-03  4.16287757e+00  2.31780000e-02  1.42550000e+04  1.23100000e-10  0.00000000e+00
1.17257850e-03  4.16241823e+00  2.31890000e-02  1.41210000e+04  1.33000000e-10  0.00000000e+00
1.18430430e-03  4.16190729e+00  2.31990000e-02  1.39870000e+04  1.43800000e-10  0.00000000e+00
1.19614730e-03  4.16134724e+00  2.32100000e-02  1.38550000e+04  1.55400000e-10  0.00000000e+00
1.20810880e-03  4.16074009e+00  2.32210000e-02  1.37250000e+04  1.67900000e-10  0.00000000e+00
1.22018990e-03  4.16008742e+00  2.32330000e-02  1.35950000e+04  1.81300000e-10  0.00000000e+00
1.23239180e-03  4.15939047e+00  2.32440000e-02  1.34680000e+04  1.95900000e-10  0.00000000e+00
1.24471570e-03  4.15865018e+00  2.32560000e-02  1.33410000e+04  2.11500000e-10  0.00000000e+00
1.25716280e-03  4.15786729e+00  2.32680000e-02  1.32160000e+04  2.28400000e-10  0.00000000e+00
1.26973440e-03  4.15704229e+00  2.32800000e-02  1.30920000e+04  2.46600000e-10  0.00000000e+00
1.28243180e-03  4.15617552e+00  2.32930000e-02  1.29690000e+04  2.66200000e-10  0.00000000e+00
1.29525610e-03  4.15526717e+00  2.33060000e-02  1.28480000e+04  2.87300000e-10  0.00000000e+00
1.30820860e-03  4.15431727e+00  2.33190000e-02  1.27280000e+04  3.10000000e-10  0.00000000e+00
1.32129070e-03  4.15332576e+00  2.33320000e-02  1.26090000e+04  3.34500000e-10  0.00000000e+00
1.33450360e-03  4.15229244e+00  2.33460000e-02  1.24910000e+04  3.60900000e-10  0.00000000e+00
1.34784860e-03  4.15121702e+00  2.33600000e-02  1.23750000e+04  3.89200000e-10  0.00000000e+00
1.36132710e-03  4.15009911e+00  2.33740000e-02  1.22600000e+04  4.19800000e-10  0.00000000e+00
1.37494030e-03  4.14893823e+00  2.33890000e-02  1.21460000e+04  4.52700000e-10  0.00000000e+00
1.38868970e-03  4.14773383e+00  2.34040000e-02  1.20340000e+04  4.88100000e-10  0.00000000e+00
1.40257660e-03  4.14648528e+00  2.34190000e-02  1.19220000e+04  5.26200000e-10  0.00000000e+00
1.41660240e-03  4.14519184e+00  2.34340000e-02  1.18120000e+04  5.67100000e-10  0.00000000e+00
1.43076840e-03  4.14385273e+00  2.34500000e-02  1.17030000e+04  6.11200000e-10  0.00000000e+00
1.44507600e-03  4.14246707e+00  2.34670000e-02  1.15950000e+04  6.58600000e-10  0.00000000e+00
1.45952680e-03  4.14103393e+00  2.34840000e-02  1.14890000e+04  7.09500000e-10  0.00000000e+00
1.47412200e-03  4.13955230e+00  2.35010000e-02  1.13830000e+04  7.64300000e-10  0.00000000e+00
1.48886320e-03  4.13802106e+00  2.35190000e-02  1.12790000e+04  8.23200000e-10  0.00000000e+00
1.50375190e-03  4.13643907e+00  2.35370000e-02  1.11760000e+04  8.86600000e-10  0.00000000e+00
1.51878940e-03  4.13480508e+00  2.35550000e-02  1.10740000e+04  9.54600000e-10  0.00000000e+00
1.53397720e-03  4.13311776e+00  2.35740000e-02  1.09730000e+04  1.02800000e-09  0.00000000e+00
1.54931700e-03  4.13137570e+00  2.35940000e-02  1.08740000e+04  1.10600000e-09  0.00000000e+00
1.56481020e-03  4.12957743e+00  2.36140000e-02  1.07750000e+04  1.19100000e-09  0.00000000e+00
1.58045820e-03  4.12772137e+00  2.36350000e-02  1.06780000e+04  1.28100000e-09  0.00000000e+00
1.59626280e-03  4.12580584e+00  2.36560000e-02  1.05820000e+04  1.37900000e-09  0.00000000e+00
1.61222540e-03  4.12382910e+00  2.36780000e-02  1.04870000e+04  1.48300000e-09  0.00000000e+00
1.62834770e-03  4.12178927e+00  2.37010000e-02  1.03930000e+04  1.59500000e-09  0.00000000e+00
1.64463110e-03  4.11968439e+00  2.37240000e-02  1.03000000e+04  1.71600000e-09  0.00000000e+00
1.66107740e-03  4.11751239e+00  2.37480000e-02  1.02090000e+04  1.84500000e-09  0.00000000e+00
1.67768820e-03  4.11527107e+00  2.37730000e-02  1.01180000e+04  1.98400000e-09  0.00000000e+00
1.69446500e-03  4.11295812e+00  2.37990000e-02  1.00290000e+04  2.13200000e-09  0.00000000e+00
1.71140970e-03  4.11057108e+00  2.38250000e-02  9.94030000e+03  2.29200000e-09  0.00000000e+00
1.72852380e-03  4.10810736e+00  2.38530000e-02  9.85320000e+03  2.46300000e-09  0.00000000e+00
1.74580900e-03  4.10556423e+00  2.38810000e-02  9.76720000e+03  2.64700000e-09  0.00000000e+00
1.76326710e-03  4.10293877e+00  2.39100000e-02  9.68240000e+03  2.84400000e-09  0.00000000e+00
1.78089970e-03  4.10022793e+00  2.39400000e-02  9.59860000e+03  3.05500000e-09  0.00000000e+00
1.79870870e-03  4.09742843e+00  2.39720000e-02  9.51610000e+03  3.28100000e-09  0.00000000e+00
1.81669580e-03  4.09453681e+00  2.40040000e-02  9.43470000e+03  3.52400000e-09  0.00000000e+00
1.83486270e-03  4.09154942e+00  2.40380000e-02  9.35440000e+03  3.78400000e-09  0.00000000e+00
1.85321130e-03  4.08846233e+00  2.40730000e-02  9.27540000e+03  4.06200000e-09  0.00000000e+00
1.87174340e-03  4.08527138e+00  2.41100000e-02  9.19750000e+03  4.36000000e-09  0.00000000e+00
1.89046080e-03  4.08197216e+00  2.41480000e-02  9.12080000e+03  4.68000000e-09  0.00000000e+00
1.90936540e-03  4.07855991e+00  2.41880000e-02  9.04540000e+03  5.02200000e-09  0.00000000e+00
1.92845900e-03  4.07502959e+00  2.42290000e-02  8.97120000e+03  5.38900000e-09  0.00000000e+00
1.94774360e-03  4.07137578e+00  2.42730000e-02  8.89830000e+03  5.78100000e-09  0.00000000e+00
1.96722100e-03  4.06759267e+00  2.43180000e-02  8.82660000e+03  6.20100000e-09  0.00000000e+00
1.98689320e-03  4.06367404e+00  2.43660000e-02  8.75630000e+03  6.65100000e-09  0.00000000e+00
2.00676210e-03  4.05961318e+00  2.44150000e-02  8.68730000e+03  7.13200000e-09  0.00000000e+00
2.02682970e-03  4.05540286e+00  2.44680000e-02  8.61980000e+03  7.64800000e-09  0.00000000e+00
2.04709800e-03  4.05103528e+00  2.45230000e-02  8.55360000e+03  8.19900000e-09  0.00000000e+00
2.06756900e-03  4.04650198e+00  2.45810000e-02  8.48900000e+03  8.78800000e-09  0.00000000e+00
2.08824460e-03  4.04179379e+00  2.46420000e-02  8.42590000e+03  9.41900000e-09  0.00000000e+00
2.10912710e-03  4.03690075e+00  2.47070000e-02  8.36440000e+03  1.00900000e-08  0.00000000e+00
2.13021830e-03  4.03181198e+00  2.47750000e-02  8.30460000e+03  1.08100000e-08  0.00000000e+00
2.15152050e-03  4.02651560e+00  2.48480000e-02  8.24650000e+03  1.15800000e-08  0.00000000e+00
2.17303570e-03  4.02099856e+00  2.49260000e-02  8.19030000e+03  1.24100000e-08  0.00000000e+00
2.19476600e-03  4.01524652e+00  2.50090000e-02  8.13620000e+03  1.32900000e-08  0.00000000e+00
2.21671360e-03  4.00924365e+00  2.50970000e-02  8.08410000e+03  1.42300000e-08  0.00000000e+00
2.23888080e-03  4.00297239e+00  2.51920000e-02  8.03430000e+03  1.52400000e-08  0.00000000e+00
2.26126950e-03  3.99641322e+00  2.52940000e-02  7.98690000e+03  1.63100000e-08  0.00000000e+00
2.28388220e-03  3.98954435e+00  2.54040000e-02  7.94220000e+03  1.74600000e-08  0.00000000e+00
2.30672100e-03  3.98234128e+00  2.55230000e-02  7.90040000e+03  1.86900000e-08  0.00000000e+00
2.32978820e-03  3.97477641e+00  2.56520000e-02  7.86180000e+03  1.99900000e-08  0.00000000e+00
2.35308610e-03  3.96681845e+00  2.57930000e-02  7.82670000e+03  2.13900000e-08  0.00000000e+00
2.37661690e-03  3.95843165e+00  2.59470000e-02  7.79560000e+03  2.28800000e-08  0.00000000e+00
2.40038310e-03  3.94957501e+00  2.61170000e-02  7.76900000e+03  2.44800000e-08  0.00000000e+00
2.42438690e-03  3.94020109e+00  2.63050000e-02  7.74750000e+03  2.61800000e-08  0.00000000e+00
2.44863070e-03  3.93025458e+00  2.65150000e-02  7.73190000e+03  2.79900000e-08  0.00000000e+00
2.47311700e-03  3.91967043e+00  2.67500000e-02  7.72320000e+03  2.99300000e-08  0.00000000e+00
2.49784810e-03  3.90837139e+00  2.70150000e-02  7.72260000e+03  3.19900000e-08  0.00000000e+00
2.52282660e-03  3.89626466e+00  2.73180000e-02  7.73170000e+03  3.42000000e-08  0.00000000e+00
2.54805480e-03  3.88323739e+00  2.76650000e-02  7.75260000e+03  3.65500000e-08  0.00000000e+00
2.57353540e-03  3.86915032e+00  2.80700000e-02  7.78800000e+03  3.90500000e-08  0.00000000e+00
2.59927070e-03  3.85382874e+00  2.85460000e-02  7.84180000e+03  4.17200000e-08  0.00000000e+00
2.62526340e-03  3.83704916e+00  2.91160000e-02  7.91920000e+03  4.45700000e-08  0.00000000e+00
2.65151600e-03  3.81851904e+00  2.98110000e-02  8.02790000e+03  4.76000000e-08  0.00000000e+00
2.67803110e-03  3.79784474e+00  3.06770000e-02  8.17940000e+03  5.08400000e-08  0.00000000e+00
2.70481140e-03  3.77447825e+00  3.17880000e-02  8.39160000e+03  5.42900000e-08  0.00000000e+00
2.73185950e-03  3.74762367e+00  3.32650000e-02  8.69460000e+03  5.79600000e-08  0.00000000e+00
2.75917810e-03  3.71605976e+00  3.53260000e-02  9.14190000e+03  6.18700000e-08  0.00000000e+00
2.78676980e-03  3.67776931e+00  3.84050000e-02  9.84030000e+03  6.60400000e-08  0.00000000e+00
2.81463750e-03  3.62905437e+00  4.35040000e-02  1.10360000e+04  7.04800000e-08  0.00000000e+00
2.84278380e-03  3.56197526e+00  5.35510000e-02  1.34510000e+04  7.52000000e-08  0.00000000e+00
2.87121160e-03  3.45452367e+00  8.19760000e-02  2.03870000e+04  8.02300000e-08  0.00000000e+00
2.89992370e-03  3.28439166e+00  2.74650000e-01  6.76250000e+04  8.55900000e-08  0.00000000e+00
2.92892290e-03  3.44148723e+00  4.73950000e-01  1.15540000e+05  9.12900000e-08  0.00000000e+00
2.95821210e-03  3.54089698e+00  5.06840000e-01  1.22340000e+05  9.73500000e-08  0.00000000e+00
2.98779420e-03  3.60108199e+00  5.21180000e-01  1.24550000e+05  1.03800000e-07  0.00000000e+00
3.01767220e-03  3.64372632e+00  5.30580000e-01  1.25540000e+05  1.10700000e-07  0.00000000e+00
3.04784880e-03  3.67658569e+00  5.37970000e-01  1.26030000e+05  1.18000000e-07  0.00000000e+00
3.07832730e-03  3.70324092e+00  5.44390000e-01  1.26270000e+05  1.25800000e-07  0.00000000e+00
3.10911050e-03  3.72562982e+00  5.50250000e-01  1.26370000e+05  1.34000000e-07  0.00000000e+00
3.14020160e-03  3.74491788e+00  5.55780000e-01  1.26380000e+05  1.42800000e-07  0.00000000e+00
3.17160360e-03  3.76186227e+00  5.61100000e-01  1.26320000e+05  1.52100000e-07  0.00000000e+00
3.20331960e-03  3.77698787e+00  5.66290000e-01  1.26230000e+05  1.62100000e-07  0.00000000e+00
3.23535280e-03  3.79066318e+00  5.71350000e-01  1.26100000e+05  1.72600000e-07  0.00000000e+00
3.26770630e-03  3.80313920e+00  5.76310000e-01  1.25930000e+05  1.83800000e-07  0.00000000e+00
3.30038330e-03  3.81460832e+00  5.81180000e-01  1.25740000e+05  1.95800000e-07  0.00000000e+00
3.33338710e-03  3.82522108e+00  5.85990000e-01  1.25520000e+05  2.08400000e-07  0.00000000e+00
3.36672100e-03  3.83509684e+00  5.90760000e-01  1.25290000e+05  2.21900000e-07  0.00000000e+00
3.40038810e-03  3.84433149e+00  5.95480000e-01  1.25040000e+05  2.36200000e-07  0.00000000e+00
3.43439200e-03  3.85300312e+00  6.00170000e-01  1.24780000e+05  2.51300000e-07  0.00000000e+00
3.46873590e-03  3.86117605e+00  6.04830000e-01  1.24500000e+05  2.67400000e-07  0.00000000e+00
3.50342320e-03  3.86890383e+00  6.09470000e-01  1.24220000e+05  2.84500000e-07  0.00000000e+00
3.53845740e-03  3.87623144e+00  6.14100000e-01  1.23920000e+05  3.02700000e-07  0.00000000e+00
3.57384190e-03  3.88319703e+00  6.18720000e-01  1.23620000e+05  3.22000000e-07  0.00000000e+00
3.60958030e-03  3.88983317e+00  6.23330000e-01  1.23300000e+05  3.42400000e-07  0.00000000e+00
3.64567610e-03  3.89616787e+00  6.27930000e-01  1.22990000e+05  3.64100000e-07  0.00000000e+00
3.68213280e-03  3.90222537e+00  6.32540000e-01  1.22660000e+05  3.87100000e-07  0.00000000e+00
3.71895410e-03  3.90802678e+00  6.37150000e-01  1.22330000e+05  4.11500000e-07  0.00000000e+00
3.75614360e-03  3.91359059e+00  6.41760000e-01  1.22000000e+05  4.37400000e-07  0.00000000e+00
3.79370500e-03  3.91893306e+00  6.46380000e-01  1.21660000e+05  4.64900000e-07  0.00000000e+00
3.83164200e-03  3.92406854e+00  6.51020000e-01  1.21320000e+05  4.94000000e-07  0.00000000e+00
3.86995840e-03  3.92900979e+00  6.55660000e-01  1.20970000e+05  5.24900000e-07  0.00000000e+00
3.90865800e-03  3.93376818e+00  6.60320000e-01  1.20630000e+05  5.57600000e-07  0.00000000e+00
3.94774450e-03  3.93835389e+00  6.65000000e-01  1.20280000e+05  5.92300000e-07  0.00000000e+00
3.98722190e-03  3.94277604e+00  6.69700000e-01  1.19930000e+05  6.29000000e-07  0.00000000e+00
4.02709410e-03  3.94704288e+00  6.74420000e-01  1.19580000e+05  6.68000000e-07  0.00000000e+00
4.06736500e-03  3.95116182e+00  6.79160000e-01  1.19230000e+05  7.09200000e-07  0.00000000e+00
4.10803860e-03  3.95513964e+00  6.83940000e-01  1.18880000e+05  7.53000000e-07  0.00000000e+00
4.14911890e-03  3.95898246e+00  6.88740000e-01  1.18530000e+05  7.99200000e-07  0.00000000e+00
4.19061010e-03  3.96269588e+00  6.93570000e-01  1.18180000e+05  8.48300000e-07  0.00000000e+00
4.23251620e-03  3.96628504e+00  6.98430000e-01  1.17830000e+05  9.00200000e-07  0.00000000e+00
4.27484130e-03  3.96975462e+00  7.03320000e-01  1.17480000e+05  9.55100000e-07  0.00000000e+00
4.31758960e-03  3.97310897e+00  7.08260000e-01  1.17130000e+05  1.01300000e-06  0.00000000e+00
4.36076550e-03  3.97635205e+00  7.13230000e-01  1.16780000e+05  1.07500000e-06  0.00000000e+00
4.40437310e-03  3.97948758e+00  7.18240000e-01  1.16440000e+05  1.14000000e-06  0.00000000e+00
4.44841680e-03  3.98251895e+00  7.23300000e-01  1.16100000e+05  1.20900000e-06  0.00000000e+00
4.49290090e-03  3.98544936e+00  7.28400000e-01  1.15760000e+05  1.28200000e-06  0.00000000e+00
4.53782990e-03  3.98828177e+00  7.33550000e-01  1.15420000e+05  1.35900000e-06  0.00000000e+00
4.58320820e-03  3.99101894e+00  7.38740000e-01  1.15090000e+05  1.44100000e-06  0.00000000e+00
4.62904020e-03  3.99366346e+00  7.43990000e-01  1.14760000e+05  1.52700000e-06  0.00000000e+00
4.67533060e-03  3.99621776e+00  7.49280000e-01  1.14430000e+05  1.61800000e-06  0.00000000e+00
4.72208380e-03  3.99868414e+00  7.54640000e-01  1.14110000e+05  1.71500000e-06  0.00000000e+00
4.76930460e-03  4.00106476e+00  7.60050000e-01  1.13790000e+05  1.81700000e-06  0.00000000e+00
4.81699760e-03  4.00336164e+00  7.65510000e-01  1.13470000e+05  1.92400000e-06  0.00000000e+00
4.86516750e-03  4.00557674e+00  7.71040000e-01  1.13160000e+05  2.03800000e-06  0.00000000e+00
4.91381920e-03  4.00771188e+00  7.76630000e-01  1.12850000e+05  2.15900000e-06  0.00000000e+00
4.96295730e-03  4.00976881e+00  7.82290000e-01  1.12550000e+05  2.28600000e-06  0.00000000e+00
5.01258680e-03  4.01174922e+00  7.88010000e-01  1.12250000e+05  2.42000000e-06  0.00000000e+00
5.06271270e-03  4.01365470e+00  7.93800000e-01  1.11960000e+05  2.56200000e-06  0.00000000e+00
5.11333970e-03  4.01548679e+00  7.99660000e-01  1.11660000e+05  2.71200000e-06  0.00000000e+00
5.16447310e-03  4.01724696e+00  8.05590000e-01  1.11380000e+05  2.87000000e-06  0.00000000e+00
5.21611780e-03  4.01893663e+00  8.11590000e-01  1.11100000e+05  3.03700000e-06  0.00000000e+00
5.26827890e-03  4.02055719e+00  8.17670000e-01  1.10820000e+05  3.21400000e-06  0.00000000e+00
5.32096160e-03  4.02210996e+00  8.23830000e-01  1.10550000e+05  3.40000000e-06  0.00000000e+00
5.37417120e-03  4.02359625e+00  8.30070000e-01  1.10290000e+05  3.59600000e-06  0.00000000e+00
5.42791290e-03  4.02501732e+00  8.36400000e-01  1.10030000e+05  3.80400000e-06  0.00000000e+00
5.48219190e-03  4.02637438e+00  8.42800000e-01  1.09770000e+05  4.02200000e-06  0.00000000e+00
5.53701380e-03  4.02766865e+00  8.49300000e-01  1.09520000e+05  4.25300000e-06  0.00000000e+00
5.59238390e-03  4.02890131e+00  8.55880000e-01  1.09280000e+05  4.49600000e-06  0.00000000e+00
5.64830770e-03  4.03007351e+00  8.62550000e-01  1.09040000e+05  4.75300000e-06  0.00000000e+00
5.70479070e-03  4.03118640e+00  8.69310000e-01  1.08810000e+05  5.02400000e-06  0.00000000e+00
5.76183850e-03  4.03224109e+00  8.76170000e-01  1.08580000e+05  5.30900000e-06  0.00000000e+00
5.81945690e-03  4.03323871e+00  8.83130000e-01  1.08360000e+05  5.61000000e-06  0.00000000e+00
5.87765140e-03  4.03418036e+00  8.90180000e-01  1.08140000e+05  5.92700000e-06  0.00000000e+00
5.93642780e-03  4.03506713e+00  8.97330000e-01  1.07930000e+05  6.26100000e-06  0.00000000e+00
5.99579210e-03  4.03590010e+00  9.04590000e-01  1.07730000e+05  6.61300000e-06  0.00000000e+00
6.05574990e-03  4.03668038e+00  9.11950000e-01  1.07530000e+05  6.98500000e-06  0.00000000e+00
6.11630740e-03  4.03740903e+00  9.19420000e-01  1.07340000e+05  7.37500000e-06  0.00000000e+00
6.17747040e-03  4.03808714e+00  9.27000000e-01  1.07150000e+05  7.78700000e-06  0.00000000e+00
6.23924500e-03  4.03871579e+00  9.34690000e-01  1.06970000e+05  8.22100000e-06  0.00000000e+00
6.30163740e-03  4.03929609e+00  9.42490000e-01  1.06790000e+05  8.67800000e-06  0.00000000e+00
6.36465370e-03  4.03982911e+00  9.50410000e-01  1.06620000e+05  9.15900000e-06  0.00000000e+00
6.42830020e-03  4.04031597e+00  9.58450000e-01  1.06460000e+05  9.66500000e-06  0.00000000e+00
6.49258320e-03  4.04075776e+00  9.66600000e-01  1.06300000e+05  1.02000000e-05  0.00000000e+00
6.55750890e-03  4.04115562e+00  9.74880000e-01  1.06150000e+05  1.07600000e-05  0.00000000e+00
6.62308400e-03  4.04151067e+00  9.83280000e-01  1.06010000e+05  1.13500000e-05  0.00000000e+00
6.68931470e-03  4.04182406e+00  9.91810000e-01  1.05870000e+05  1.19700000e-05  0.00000000e+00
6.75620780e-03  4.04209695e+00  1.00050000e+00  1.05740000e+05  1.26200000e-05  0.00000000e+00
6.82376980e-03  4.04233052e+00  1.00930000e+00  1.05610000e+05  1.33100000e-05  0.00000000e+00
6.89200750e-03  4.04252594e+00  1.01820000e+00  1.05490000e+05  1.40300000e-05  0.00000000e+00
6.96092750e-03  4.04268445e+00  1.02720000e+00  1.05370000e+05  1.47900000e-05  0.00000000e+00
7.03053670e-03  4.04280727e+00  1.03640000e+00  1.05260000e+05  1.55900000e-05  0.00000000e+00
7.10084200e-03  4.04289566e+00  1.04580000e+00  1.05160000e+05  1.64400000e-05  0.00000000e+00
7.17185030e-03  4.04295089e+00  1.05530000e+00  1.05060000e+05  1.73200000e-05  0.00000000e+00
7.24356880e-03  4.04297426e+00  1.06490000e+00  1.04970000e+05  1.82500000e-05  0.00000000e+00
