#  Cu:    Z = 29;   Atomic weight = 63.54600 g/mol ;    nominal density:   [INLINE] = 8.9400E+00 g/cm3
#         a(barns/atom) = (cm2/g)    1.05521E+02
#         E(eV) (cm2/g) = f2(e/atom)    6.62202E+05
#         9 edges. Edge energies (keV):
# K      8.97890E+00  L I    1.09610E+00  L II   9.51000E-01  L III  9.31100E-01
# M I    1.19800E-01  M II   7.36000E-02  M III  7.36000E-02  M IV   1.60000E-03
# M V    1.60000E-03
#         Relativistic correction estimate frel (H82,3/5CL) = -1.4003E-01, -8.7600E-02 e/atom
#         Nuclear Thomson correction fNT = -7.2602E-03 e/atom
#    _________________________________________________________________________________________________________
#  Form Factors, Attenuation and Scattering Cross-sections
#  Z=29, E = 0.001 - 1000 keV
#                                                             Attenuation
#    E         f1            f2                     [INLINE] (coh+inc) Coefficient    K       wavelength
#    keV       e/atom       e/atom      cm2/g       cm2/g      cm2/g          cm2/g        nm
1.01000000e-03  3.85335535e+00  4.31410000e-02  2.82850000e+04  1.87500000e-11  0.00000000e+00
1.02010000e-03  3.85956450e+00  4.32270000e-02  2.80610000e+04  2.03600000e-11  0.00000000e+00
1.03030100e-03  3.86181470e+00  4.33170000e-02  2.78410000e+04  2.21000000e-11  0.00000000e+00
1.04060400e-03  3.86237695e+00  4.34100000e-02  2.76250000e+04  2.39900000e-11  0.00000000e+00
1.05101010e-03  3.86203745e+00  4.35080000e-02  2.74130000e+04  2.60400000e-11  0.00000000e+00
1.06152010e-03  3.86090289e+00  4.36100000e-02  2.72050000e+04  2.82600000e-11  0.00000000e+00
1.07213530e-03  3.85926129e+00  4.37180000e-02  2.70020000e+04  3.06700000e-11  0.00000000e+00
1.08285670e-03  3.85720750e+00  4.38300000e-02  2.68040000e+04  3.32700000e-11  0.00000000e+00
1.09368520e-03  3.85480047e+00  4.39490000e-02  2.66100000e+04  3.60900000e-11  0.00000000e+00
1.10462210e-03  3.85207808e+00  4.40730000e-02  2.64210000e+04  3.91400000e-11  0.00000000e+00
1.11566830e-03  3.84906490e+00  4.42050000e-02  2.62380000e+04  4.24400000e-11  0.00000000e+00
1.12682500e-03  3.84577656e+00  4.43430000e-02  2.60590000e+04  4.60100000e-11  0.00000000e+00
1.13809320e-03  3.84222231e+00  4.44900000e-02  2.58870000e+04  4.98800000e-11  0.00000000e+00
1.14947410e-03  3.83840667e+00  4.46450000e-02  2.57200000e+04  5.40600000e-11  0.00000000e+00
1.16096880e-03  3.83433035e+00  4.48100000e-02  2.55590000e+04  5.85800000e-11  0.00000000e+00
1.17257850e-03  3.82999098e+00  4.49850000e-02  2.54050000e+04  6.34800000e-11  0.00000000e+00
1.18430430e-03  3.82538348e+00  4.51710000e-02  2.52570000e+04  6.87700000e-11  0.00000000e+00
1.19614730e-03  3.82050026e+00  4.53700000e-02  2.51170000e+04  7.44900000e-11  0.00000000e+00
1.20810880e-03  3.81533138e+00  4.55820000e-02  2.49850000e+04  8.06700000e-11  0.00000000e+00
1.22018990e-03  3.80986453e+00  4.58100000e-02  2.48610000e+04  8.73500000e-11  0.00000000e+00
1.23239180e-03  3.80408497e+00  4.60550000e-02  2.47470000e+04  9.45800000e-11  0.00000000e+00
1.24471570e-03  3.79797535e+00  4.63190000e-02  2.46420000e+04  1.02400000e-10  0.00000000e+00
1.25716280e-03  3.79151551e+00  4.66040000e-02  2.45490000e+04  1.10800000e-10  0.00000000e+00
1.26973440e-03  3.78468214e+00  4.69140000e-02  2.44670000e+04  1.19900000e-10  0.00000000e+00
1.28243180e-03  3.77744834e+00  4.72510000e-02  2.43990000e+04  1.29800000e-10  0.00000000e+00
1.29525610e-03  3.76978312e+00  4.76190000e-02  2.43460000e+04  1.40400000e-10  0.00000000e+00
1.30820860e-03  3.76165067e+00  4.80240000e-02  2.43090000e+04  1.51800000e-10  0.00000000e+00
1.32129070e-03  3.75300950e+00  4.84700000e-02  2.42920000e+04  1.64200000e-10  0.00000000e+00
1.33450360e-03  3.74381133e+00  4.89640000e-02  2.42970000e+04  1.77600000e-10  0.00000000e+00
1.34784860e-03  3.73399963e+00  4.95140000e-02  2.43260000e+04  1.92000000e-10  0.00000000e+00
1.36132710e-03  3.72350773e+00  5.01320000e-02  2.43860000e+04  2.07600000e-10  0.00000000e+00
1.37494030e-03  3.71225641e+00  5.08300000e-02  2.44810000e+04  2.24300000e-10  0.00000000e+00
1.38868970e-03  3.70015055e+00  5.16250000e-02  2.46170000e+04  2.42400000e-10  0.00000000e+00
1.40257660e-03  3.68707475e+00  5.25380000e-02  2.48050000e+04  2.62000000e-10  0.00000000e+00
1.41660240e-03  3.67288711e+00  5.35990000e-02  2.50550000e+04  2.83000000e-10  0.00000000e+00
1.43076840e-03  3.65741057e+00  5.48470000e-02  2.53850000e+04  3.05700000e-10  0.00000000e+00
1.44507600e-03  3.64042036e+00  5.63360000e-02  2.58160000e+04  3.30200000e-10  0.00000000e+00
1.45952680e-03  3.62162523e+00  5.81430000e-02  2.63800000e+04  3.56600000e-10  0.00000000e+00
1.47412200e-03  3.60063869e+00  6.03820000e-02  2.71250000e+04  3.85000000e-10  0.00000000e+00
1.48886320e-03  3.57693281e+00  6.32290000e-02  2.81220000e+04  4.15600000e-10  0.00000000e+00
1.50375190e-03  3.54976103e+00  6.69680000e-02  2.94900000e+04  4.48600000e-10  0.00000000e+00
1.51878940e-03  3.51802181e+00  7.20940000e-02  3.14330000e+04  4.84100000e-10  0.00000000e+00
1.53397720e-03  3.48000364e+00  7.95390000e-02  3.43360000e+04  5.22400000e-10  0.00000000e+00
1.54931700e-03  3.43288236e+00  9.12840000e-02  3.90160000e+04  5.63600000e-10  0.00000000e+00
1.56481020e-03  3.37175553e+00  1.12290000e-01  4.75210000e+04  6.08000000e-10  0.00000000e+00
1.58045820e-03  3.28916867e+00  1.58110000e-01  6.62450000e+04  6.55700000e-10  0.00000000e+00
1.59626280e-03  3.20131019e+00  2.79690000e-01  1.16030000e+05  7.07200000e-10  0.00000000e+00
1.61222540e-03  3.23680295e+00  4.49310000e-01  1.84550000e+05  7.62500000e-10  0.00000000e+00
1.62834770e-03  3.32452868e+00  5.24830000e-01  2.13430000e+05  8.22000000e-10  0.00000000e+00
1.64463110e-03  3.39107139e+00  5.57280000e-01  2.24390000e+05  8.86100000e-10  0.00000000e+00
1.66107740e-03  3.44084866e+00  5.75350000e-01  2.29370000e+05  9.55000000e-10  0.00000000e+00
1.67768820e-03  3.47998111e+00  5.87370000e-01  2.31840000e+05  1.02900000e-09  0.00000000e+00
1.69446500e-03  3.51202551e+00  5.96330000e-01  2.33050000e+05  1.10900000e-09  0.00000000e+00
1.71140970e-03  3.53906789e+00  6.03550000e-01  2.33530000e+05  1.19400000e-09  0.00000000e+00
1.72852380e-03  3.56240448e+00  6.09690000e-01  2.33570000e+05  1.28600000e-09  0.00000000e+00
1.74580900e-03  3.58288315e+00  6.15120000e-01  2.33320000e+05  1.38500000e-09  0.00000000e+00
1.76326710e-03  3.60107698e+00  6.20060000e-01  2.32870000e+05  1.49200000e-09  0.00000000e+00
1.78089970e-03  3.61739353e+00  6.24700000e-01  2.32280000e+05  1.60600000e-09  0.00000000e+00
1.79870870e-03  3.63217675e+00  6.29160000e-01  2.31630000e+05  1.72900000e-09  0.00000000e+00
1.81669580e-03  3.64568838e+00  6.33510000e-01  2.30920000e+05  1.86100000e-09  0.00000000e+00
1.83486270e-03  3.65812796e+00  6.37800000e-01  2.30180000e+05  2.00300000e-09  0.00000000e+00
1.85321130e-03  3.66965237e+00  6.42050000e-01  2.29420000e+05  2.15500000e-09  0.00000000e+00
1.87174340e-03  3.68038754e+00  6.46280000e-01  2.28650000e+05  2.31800000e-09  0.00000000e+00
1.89046080e-03  3.69043628e+00  6.50520000e-01  2.27870000e+05  2.49300000e-09  0.00000000e+00
1.90936540e-03  3.69988366e+00  6.54780000e-01  2.27090000e+05  2.68200000e-09  0.00000000e+00
1.92845900e-03  3.70880090e+00  6.59060000e-01  2.26310000e+05  2.88400000e-09  0.00000000e+00
1.94774360e-03  3.71724827e+00  6.63380000e-01  2.25540000e+05  3.10100000e-09  0.00000000e+00
1.96722100e-03  3.72527722e+00  6.67740000e-01  2.24770000e+05  3.33300000e-09  0.00000000e+00
1.98689320e-03  3.73293204e+00  6.72150000e-01  2.24020000e+05  3.58300000e-09  0.00000000e+00
2.00676210e-03  3.74025113e+00  6.76610000e-01  2.23270000e+05  3.85000000e-09  0.00000000e+00
2.02682970e-03  3.74726802e+00  6.81120000e-01  2.22530000e+05  4.13700000e-09  0.00000000e+00
2.04709800e-03  3.75401216e+00  6.85680000e-01  2.21810000e+05  4.44500000e-09  0.00000000e+00
2.06756900e-03  3.76050954e+00  6.90300000e-01  2.21090000e+05  4.77500000e-09  0.00000000e+00
2.08824460e-03  3.76678326e+00  6.94980000e-01  2.20390000e+05  5.12800000e-09  0.00000000e+00
2.10912710e-03  3.77285389e+00  6.99720000e-01  2.19690000e+05  5.50700000e-09  0.00000000e+00
2.13021830e-03  3.77873986e+00  7.04510000e-01  2.19010000e+05  5.91400000e-09  0.00000000e+00
2.15152050e-03  3.78445774e+00  7.09370000e-01  2.18330000e+05  6.34900000e-09  0.00000000e+00
2.17303570e-03  3.79002249e+00  7.14290000e-01  2.17670000e+05  6.81500000e-09  0.00000000e+00
2.19476600e-03  3.79544765e+00  7.19260000e-01  2.17020000e+05  7.31400000e-09  0.00000000e+00
2.21671360e-03  3.80074552e+00  7.24300000e-01  2.16370000e+05  7.84900000e-09  0.00000000e+00
2.23888080e-03  3.80592729e+00  7.29400000e-01  2.15740000e+05  8.42200000e-09  0.00000000e+00
2.26126950e-03  3.81100319e+00  7.34550000e-01  2.15110000e+05  9.03500000e-09  0.00000000e+00
2.28388220e-03  3.81598260e+00  7.39770000e-01  2.14490000e+05  9.69100000e-09  0.00000000e+00
2.30672100e-03  3.82087410e+00  7.45050000e-01  2.13880000e+05  1.03900000e-08  0.00000000e+00
2.32978820e-03  3.82568560e+00  7.50380000e-01  2.13280000e+05  1.11500000e-08  0.00000000e+00
2.35308610e-03  3.83042440e+00  7.55770000e-01  2.12690000e+05  1.19500000e-08  0.00000000e+00
2.37661690e-03  3.83509720e+00  7.61220000e-01  2.12100000e+05  1.28100000e-08  0.00000000e+00
2.40038310e-03  3.83971024e+00  7.66730000e-01  2.11520000e+05  1.37300000e-08  0.00000000e+00
2.42438690e-03  3.84426928e+00  7.72290000e-01  2.10950000e+05  1.47200000e-08  0.00000000e+00
2.44863070e-03  3.84877965e+00  7.77910000e-01  2.10380000e+05  1.57700000e-08  0.00000000e+00
2.47311700e-03  3.85324632e+00  7.83590000e-01  2.09810000e+05  1.68900000e-08  0.00000000e+00
2.49784810e-03  3.85767390e+00  7.89320000e-01  2.09260000e+05  1.81000000e-08  0.00000000e+00
2.52282660e-03  3.86206669e+00  7.95110000e-01  2.08700000e+05  1.93800000e-08  0.00000000e+00
2.54805480e-03  3.86642869e+00  8.00950000e-01  2.08150000e+05  2.07600000e-08  0.00000000e+00
2.57353540e-03  3.87076364e+00  8.06840000e-01  2.07610000e+05  2.22300000e-08  0.00000000e+00
2.59927070e-03  3.87507502e+00  8.12780000e-01  2.07070000e+05  2.38000000e-08  0.00000000e+00
2.62526340e-03  3.87936608e+00  8.18780000e-01  2.06530000e+05  2.54700000e-08  0.00000000e+00
2.65151600e-03  3.88363986e+00  8.24830000e-01  2.06000000e+05  2.72600000e-08  0.00000000e+00
2.67803110e-03  3.88789920e+00  8.30930000e-01  2.05470000e+05  2.91800000e-08  0.00000000e+00
2.70481140e-03  3.89214677e+00  8.37080000e-01  2.04940000e+05  3.12200000e-08  0.00000000e+00
2.73185950e-03  3.89638504e+00  8.43280000e-01  2.04410000e+05  3.34000000e-08  0.00000000e+00
2.75917810e-03  3.90061635e+00  8.49530000e-01  2.03890000e+05  3.57200000e-08  0.00000000e+00
2.78676980e-03  3.90484288e+00  8.55830000e-01  2.03370000e+05  3.82100000e-08  0.00000000e+00
2.81463750e-03  3.90906665e+00  8.62180000e-01  2.02850000e+05  4.08600000e-08  0.00000000e+00
2.84278380e-03  3.91328959e+00  8.68570000e-01  2.02330000e+05  4.36900000e-08  0.00000000e+00
2.87121160e-03  3.91751346e+00  8.75010000e-01  2.01810000e+05  4.67000000e-08  0.00000000e+00
2.89992370e-03  3.92173995e+00  8.81500000e-01  2.01290000e+05  4.99200000e-08  0.00000000e+00
2.92892290e-03  3.92597060e+00  8.88030000e-01  2.00780000e+05  5.33500000e-08  0.00000000e+00
2.95821210e-03  3.93020687e+00  8.94610000e-01  2.00260000e+05  5.70100000e-08  0.00000000e+00
2.98779420e-03  3.93445013e+00  9.01240000e-01  1.99750000e+05  6.09200000e-08  0.00000000e+00
3.01767220e-03  3.93870163e+00  9.07910000e-01  1.99230000e+05  6.50800000e-08  0.00000000e+00
3.04784880e-03  3.94296257e+00  9.14620000e-01  1.98720000e+05  6.95100000e-08  0.00000000e+00
3.07832730e-03  3.94723404e+00  9.21380000e-01  1.98200000e+05  7.42400000e-08  0.00000000e+00
3.10911050e-03  3.95151706e+00  9.28180000e-01  1.97690000e+05  7.92700000e-08  0.00000000e+00
3.14020160e-03  3.95581258e+00  9.35020000e-01  1.97180000e+05  8.46400000e-08  0.00000000e+00
3.17160360e-03  3.96012149e+00  9.41910000e-01  1.96660000e+05  9.03600000e-08  0.00000000e+00
3.20331960e-03  3.96444460e+00  9.48840000e-01  1.96150000e+05  9.64400000e-08  0.00000000e+00
3.23535280e-03  3.96878266e+00  9.55810000e-01  1.95630000e+05  1.02900000e-07  0.00000000e+00
3.26770630e-03  3.97313635e+00  9.62820000e-01  1.95120000e+05  1.09800000e-07  0.00000000e+00
3.30038330e-03  3.97750633e+00  9.69880000e-01  1.94600000e+05  1.17200000e-07  0.00000000e+00
3.33338710e-03  3.98189316e+00  9.76970000e-01  1.94080000e+05  1.25000000e-07  0.00000000e+00
3.36672100e-03  3.98629739e+00  9.84110000e-01  1.93560000e+05  1.33300000e-07  0.00000000e+00
3.40038810e-03  3.99071948e+00  9.91280000e-01  1.93050000e+05  1.42200000e-07  0.00000000e+00
3.43439200e-03  3.99515989e+00  9.98500000e-01  1.92530000e+05  1.51600000e-07  0.00000000e+00
3.46873590e-03  3.99961900e+00  1.00580000e+00  1.92000000e+05  1.61700000e-07  0.00000000e+00
3.50342320e-03  4.00409717e+00  1.01310000e+00  1.91480000e+05  1.72300000e-07  0.00000000e+00
3.53845740e-03  4.00859470e+00  1.02040000e+00  1.90960000e+05  1.83700000e-07  0.00000000e+00
3.57384190e-03  4.01311187e+00  1.02780000e+00  1.90440000e+05  1.95800000e-07  0.00000000e+00
3.60958030e-03  4.01764893e+00  1.03520000e+00  1.89910000e+05  2.08600000e-07  0.00000000e+00
3.64567610e-03  4.02220607e+00  1.04260000e+00  1.89380000e+05  2.22200000e-07  0.00000000e+00
3.68213280e-03  4.02678346e+00  1.05010000e+00  1.88860000e+05  2.36700000e-07  0.00000000e+00
3.71895410e-03  4.03138125e+00  1.05770000e+00  1.88330000e+05  2.52100000e-07  0.00000000e+00
3.75614360e-03  4.03599956e+00  1.06520000e+00  1.87800000e+05  2.68500000e-07  0.00000000e+00
3.79370500e-03  4.04063846e+00  1.07290000e+00  1.87270000e+05  2.85900000e-07  0.00000000e+00
3.83164200e-03  4.04529803e+00  1.08050000e+00  1.86740000e+05  3.04400000e-07  0.00000000e+00
3.86995840e-03  4.04997828e+00  1.08820000e+00  1.86200000e+05  3.24100000e-07  0.00000000e+00
3.90865800e-03  4.05467924e+00  1.09590000e+00  1.85670000e+05  3.44900000e-07  0.00000000e+00
3.94774450e-03  4.05940090e+00  1.10370000e+00  1.85140000e+05  3.67100000e-07  0.00000000e+00
3.98722190e-03  4.06414322e+00  1.11150000e+00  1.84600000e+05  3.90600000e-07  0.00000000e+00
4.02709410e-03  4.06890615e+00  1.11940000e+00  1.84060000e+05  4.15600000e-07  0.00000000e+00
4.06736500e-03  4.07368964e+00  1.12730000e+00  1.83530000e+05  4.42000000e-07  0.00000000e+00
4.10803860e-03  4.07849359e+00  1.13520000e+00  1.82990000e+05  4.70200000e-07  0.00000000e+00
4.14911890e-03  4.08331790e+00  1.14320000e+00  1.82450000e+05  5.00000000e-07  0.00000000e+00
4.19061010e-03  4.08816246e+00  1.15120000e+00  1.81910000e+05  5.31700000e-07  0.00000000e+00
4.23251620e-03  4.09302714e+00  1.15920000e+00  1.81370000e+05  5.65300000e-07  0.00000000e+00
4.27484130e-03  4.09791181e+00  1.16730000e+00  1.80830000e+05  6.00900000e-07  0.00000000e+00
4.31758960e-03  4.10281629e+00  1.17550000e+00  1.80280000e+05  6.38700000e-07  0.00000000e+00
4.36076550e-03  4.10774045e+00  1.18360000e+00  1.79740000e+05  6.78700000e-07  0.00000000e+00
4.40437310e-03  4.11268409e+00  1.19190000e+00  1.79200000e+05  7.21200000e-07  0.00000000e+00
4.44841680e-03  4.11764704e+00  1.20010000e+00  1.78650000e+05  7.66300000e-07  0.00000000e+00
4.49290090e-03  4.12262911e+00  1.20840000e+00  1.78110000e+05  8.14000000e-07  0.00000000e+00
4.53782990e-03  4.12763011e+00  1.21680000e+00  1.77560000e+05  8.64600000e-07  0.00000000e+00
4.58320820e-03  4.13264982e+00  1.22520000e+00  1.77020000e+05  9.18200000e-07  0.00000000e+00
4.62904020e-03  4.13768805e+00  1.23360000e+00  1.76470000e+05  9.75000000e-07  0.00000000e+00
4.67533060e-03  4.14274457e+00  1.24210000e+00  1.75930000e+05  1.03500000e-06  0.00000000e+00
4.72208380e-03  4.14781918e+00  1.25060000e+00  1.75380000e+05  1.09900000e-06  0.00000000e+00
4.76930460e-03  4.15291166e+00  1.25920000e+00  1.74840000e+05  1.16600000e-06  0.00000000e+00
4.81699760e-03  4.57894240e+00  1.26780000e+00  1.74290000e+05  1.23800000e-06  0.00000000e+00
4.86516750e-03  4.58407516e+00  1.27650000e+00  1.73750000e+05  1.31300000e-06  0.00000000e+00
4.91381920e-03  4.58922521e+00  1.28520000e+00  1.73200000e+05  1.39300000e-06  0.00000000e+00
4.96295730e-03  4.59439234e+00  1.29400000e+00  1.72660000e+05  1.47800000e-06  0.00000000e+00
5.01258680e-03  4.59957631e+00  1.30280000e+00  1.72110000e+05  1.56800000e-06  0.00000000e+00
5.06271270e-03  4.60477691e+00  1.31170000e+00  1.71570000e+05  1.66300000e-06  0.00000000e+00
5.11333970e-03  4.60999391e+00  1.32060000e+00  1.71030000e+05  1.76300000e-06  0.00000000e+00
5.16447310e-03  4.61522710e+00  1.32960000e+00  1.70490000e+05  1.87000000e-06  0.00000000e+00
5.21611780e-03  4.62047624e+00  1.33860000e+00  1.69940000e+05  1.98200000e-06  0.00000000e+00
5.26827890e-03  4.62574112e+00  1.34770000e+00  1.69400000e+05  2.10100000e-06  0.00000000e+00
5.32096160e-03  4.63102154e+00  1.35690000e+00  1.68860000e+05  2.22600000e-06  0.00000000e+00
5.37417120e-03  4.63631726e+00  1.36600000e+00  1.68320000e+05  2.35900000e-06  0.00000000e+00
5.42791290e-03  4.64162810e+00  1.37530000e+00  1.67790000e+05  2.50000000e-06  0.00000000e+00
5.48219190e-03  4.64695383e+00  1.38460000e+00  1.67250000e+05  2.64800000e-06  0.00000000e+00
5.53701380e-03  4.65229425e+00  1.39400000e+00  1.66710000e+05  2.80500000e-06  0.00000000e+00
5.59238390e-03  4.65764916e+00  1.40340000e+00  1.66180000e+05  2.97100000e-06  0.00000000e+00
5.64830770e-03  4.66301836e+00  1.41290000e+00  1.65640000e+05  3.14600000e-06  0.00000000e+00
5.70479070e-03  4.66840164e+00  1.42240000e+00  1.65110000e+05  3.33100000e-06  0.00000000e+00
5.76183850e-03  4.67379880e+00  1.43200000e+00  1.64580000e+05  3.52600000e-06  0.00000000e+00
5.81945690e-03  4.67920965e+00  1.44170000e+00  1.64050000e+05  3.73200000e-06  0.00000000e+00
5.87765140e-03  4.68463398e+00  1.45140000e+00  1.63520000e+05  3.95000000e-06  0.00000000e+00
5.93642780e-03  4.69007157e+00  1.46120000e+00  1.63000000e+05  4.18000000e-06  0.00000000e+00
5.99579210e-03  4.69552221e+00  1.47110000e+00  1.62480000e+05  4.42300000e-06  0.00000000e+00
6.05574990e-03  4.70098567e+00  1.48100000e+00  1.61950000e+05  4.67900000e-06  0.00000000e+00
6.11630740e-03  4.70646170e+00  1.49100000e+00  1.61430000e+05  4.95000000e-06  0.00000000e+00
6.17747040e-03  4.71195005e+00  1.50110000e+00  1.60910000e+05  5.23500000e-06  0.00000000e+00
6.23924500e-03  4.71745040e+00  1.51130000e+00  1.60400000e+05  5.53600000e-06  0.00000000e+00
6.30163740e-03  4.72296243e+00  1.52150000e+00  1.59880000e+05  5.85400000e-06  0.00000000e+00
6.36465370e-03  4.72848576e+00  1.53180000e+00  1.59370000e+05  6.18900000e-06  0.00000000e+00
6.42830020e-03  4.73401995e+00  1.54210000e+00  1.58860000e+05  6.54200000e-06  0.00000000e+00
6.49258320e-03  4.73956509e+00  1.55260000e+00  1.58360000e+05  6.91500000e-06  0.00000000e+00
6.55750890e-03  4.74512189e+00  1.56310000e+00  1.57850000e+05  7.30700000e-06  0.00000000e+00
6.62308400e-03  4.75069106e+00  1.57380000e+00  1.57350000e+05  7.72100000e-06  0.00000000e+00
6.68931470e-03  4.75627324e+00  1.58450000e+00  1.56850000e+05  8.15800000e-06  0.00000000e+00
6.75620780e-03  4.76186909e+00  1.59530000e+00  1.56360000e+05  8.61800000e-06  0.00000000e+00
6.82376980e-03  4.76747921e+00  1.60610000e+00  1.55870000e+05  9.10200000e-06  0.00000000e+00
6.89200750e-03  4.77310424e+00  1.61710000e+00  1.55380000e+05  9.61300000e-06  0.00000000e+00
6.96092750e-03  4.77874478e+00  1.62820000e+00  1.54890000e+05  1.01500000e-05  0.00000000e+00
7.03053670e-03  4.78440146e+00  1.63940000e+00  1.54410000e+05  1.07200000e-05  0.00000000e+00
7.10084200e-03  4.79007492e+00  1.65060000e+00  1.53930000e+05  1.13100000e-05  0.00000000e+00
7.17185030e-03  4.79576579e+00  1.66200000e+00  1.53460000e+05  1.19400000e-05  0.00000000e+00
7.24356880e-03  4.80147474e+00  1.67340000e+00  1.52980000e+05  1.26000000e-05  0.00000000e+00
