#  Ga:    Z = 31;   Atomic weight = 69.72000 g/mol ;    nominal density:   [INLINE] = 5.8770E+00 g/cm3
#         a(barns/atom) = (cm2/g)    1.15773E+02
#         E(eV) (cm2/g) = f2(e/atom)    6.03562E+05
#         9 edges. Edge energies (keV):
# K      1.03671E+01  L I    1.29770E+00  L II   1.14230E+00  L III  1.11540E+00
# M I    1.58100E-01  M II   1.06800E-01  M III  1.02900E-01  M IV   1.74000E-02
# M V    1.74000E-02
#         Relativistic correction estimate frel (H82,3/5CL) = -1.6423E-01, -1.0320E-01 e/atom
#         Nuclear Thomson correction fNT = -7.5615E-03 e/atom
#    _________________________________________________________________________________________________________
#  Form Factors, Attenuation and Scattering Cross-sections
#  Z=31, E = 0.001 - 1000 keV
#                                                             Attenuation
#    E         f1            f2                     [INLINE] (coh+inc) Coefficient    K       wavelength
#    keV       e/atom       e/atom      cm2/g       cm2/g      cm2/g          cm2/g        nm
1.01000000e-03  3.82597272e+00  1.05660000e-02  6.31390000e+03  2.24900000e-11  0.00000000e+00
1.02010000e-03  3.82827590e+00  1.05670000e-02  6.25190000e+03  2.44000000e-11  0.00000000e+00
1.03030100e-03  3.82958009e+00  1.05680000e-02  6.19060000e+03  2.64700000e-11  0.00000000e+00
1.04060400e-03  3.83047557e+00  1.05690000e-02  6.12990000e+03  2.87100000e-11  0.00000000e+00
1.05101010e-03  3.83119890e+00  1.05700000e-02  6.06970000e+03  3.11300000e-11  0.00000000e+00
1.06152010e-03  3.83189702e+00  1.05710000e-02  6.01020000e+03  3.37500000e-11  0.00000000e+00
1.07213530e-03  3.83239270e+00  1.05720000e-02  5.95130000e+03  3.65900000e-11  0.00000000e+00
1.08285670e-03  3.83282709e+00  1.05730000e-02  5.89290000e+03  3.96600000e-11  0.00000000e+00
1.09368520e-03  3.83321268e+00  1.05740000e-02  5.83510000e+03  4.29800000e-11  0.00000000e+00
1.10462210e-03  3.83355843e+00  1.05750000e-02  5.77790000e+03  4.65700000e-11  0.00000000e+00
1.11566830e-03  3.83387097e+00  1.05760000e-02  5.72130000e+03  5.04500000e-11  0.00000000e+00
1.12682500e-03  3.83415533e+00  1.05770000e-02  5.66520000e+03  5.46500000e-11  0.00000000e+00
1.13809320e-03  3.83441545e+00  1.05780000e-02  5.60970000e+03  5.91900000e-11  0.00000000e+00
1.14947410e-03  3.83465442e+00  1.05790000e-02  5.55470000e+03  6.41000000e-11  0.00000000e+00
1.16096880e-03  3.83487476e+00  1.05800000e-02  5.50030000e+03  6.94000000e-11  0.00000000e+00
1.17257850e-03  3.83507851e+00  1.05810000e-02  5.44640000e+03  7.51300000e-11  0.00000000e+00
1.18430430e-03  3.83526736e+00  1.05820000e-02  5.39300000e+03  8.13200000e-11  0.00000000e+00
1.19614730e-03  3.83552856e+00  1.05830000e-02  5.34020000e+03  8.80100000e-11  0.00000000e+00
1.20810880e-03  3.83568398e+00  1.05840000e-02  5.28790000e+03  9.52300000e-11  0.00000000e+00
1.22018990e-03  3.83582892e+00  1.05860000e-02  5.23610000e+03  1.03000000e-10  0.00000000e+00
1.23239180e-03  3.83596415e+00  1.05870000e-02  5.18490000e+03  1.11500000e-10  0.00000000e+00
1.24471570e-03  3.83609034e+00  1.05880000e-02  5.13410000e+03  1.20500000e-10  0.00000000e+00
1.25716280e-03  3.83620807e+00  1.05890000e-02  5.08380000e+03  1.30400000e-10  0.00000000e+00
1.26973440e-03  3.83631784e+00  1.05900000e-02  5.03410000e+03  1.41000000e-10  0.00000000e+00
1.28243180e-03  3.83642010e+00  1.05920000e-02  4.98480000e+03  1.52400000e-10  0.00000000e+00
1.29525610e-03  3.83651523e+00  1.05930000e-02  4.93600000e+03  1.64700000e-10  0.00000000e+00
1.30820860e-03  3.83660358e+00  1.05940000e-02  4.88770000e+03  1.78000000e-10  0.00000000e+00
1.32129070e-03  3.83668545e+00  1.05950000e-02  4.83990000e+03  1.92400000e-10  0.00000000e+00
1.33450360e-03  3.83676111e+00  1.05970000e-02  4.79260000e+03  2.07900000e-10  0.00000000e+00
1.34784860e-03  3.83683079e+00  1.05980000e-02  4.74570000e+03  2.24500000e-10  0.00000000e+00
1.36132710e-03  3.83689472e+00  1.05990000e-02  4.69930000e+03  2.42500000e-10  0.00000000e+00
1.37494030e-03  3.83695307e+00  1.06000000e-02  4.65330000e+03  2.61900000e-10  0.00000000e+00
1.38868970e-03  3.83700603e+00  1.06020000e-02  4.60780000e+03  2.82800000e-10  0.00000000e+00
1.40257660e-03  3.83705372e+00  1.06030000e-02  4.56280000e+03  3.05400000e-10  0.00000000e+00
1.41660240e-03  3.83709630e+00  1.06050000e-02  4.51820000e+03  3.29600000e-10  0.00000000e+00
1.43076840e-03  3.83713387e+00  1.06060000e-02  4.47400000e+03  3.55800000e-10  0.00000000e+00
1.44507600e-03  3.83716655e+00  1.06070000e-02  4.43030000e+03  3.83900000e-10  0.00000000e+00
1.45952680e-03  3.83719442e+00  1.06090000e-02  4.38700000e+03  4.14300000e-10  0.00000000e+00
1.47412200e-03  3.83721757e+00  1.06100000e-02  4.34420000e+03  4.46900000e-10  0.00000000e+00
1.48886320e-03  3.83723607e+00  1.06110000e-02  4.30170000e+03  4.82100000e-10  0.00000000e+00
1.50375190e-03  3.83724998e+00  1.06130000e-02  4.25970000e+03  5.19900000e-10  0.00000000e+00
1.51878940e-03  3.83725935e+00  1.06140000e-02  4.21810000e+03  5.60700000e-10  0.00000000e+00
1.53397720e-03  3.83726423e+00  1.06160000e-02  4.17690000e+03  6.04500000e-10  0.00000000e+00
1.54931700e-03  3.83726466e+00  1.06170000e-02  4.13620000e+03  6.51700000e-10  0.00000000e+00
1.56481020e-03  3.83726067e+00  1.06190000e-02  4.09580000e+03  7.02400000e-10  0.00000000e+00
1.58045820e-03  3.83725228e+00  1.06200000e-02  4.05580000e+03  7.57000000e-10  0.00000000e+00
1.59626280e-03  3.83723952e+00  1.06220000e-02  4.01620000e+03  8.15700000e-10  0.00000000e+00
1.61222540e-03  3.83722240e+00  1.06230000e-02  3.97710000e+03  8.78900000e-10  0.00000000e+00
1.62834770e-03  3.83720092e+00  1.06250000e-02  3.93830000e+03  9.46800000e-10  0.00000000e+00
1.64463110e-03  3.83717510e+00  1.06270000e-02  3.89990000e+03  1.02000000e-09  0.00000000e+00
1.66107740e-03  3.83714492e+00  1.06280000e-02  3.86180000e+03  1.09800000e-09  0.00000000e+00
1.67768820e-03  3.83711038e+00  1.06300000e-02  3.82420000e+03  1.18200000e-09  0.00000000e+00
1.69446500e-03  3.83707148e+00  1.06310000e-02  3.78690000e+03  1.27300000e-09  0.00000000e+00
1.71140970e-03  3.83702820e+00  1.06330000e-02  3.75000000e+03  1.37000000e-09  0.00000000e+00
1.72852380e-03  3.83698053e+00  1.06350000e-02  3.71340000e+03  1.47500000e-09  0.00000000e+00
1.74580900e-03  3.83692843e+00  1.06370000e-02  3.67730000e+03  1.58700000e-09  0.00000000e+00
1.76326710e-03  3.83687189e+00  1.06380000e-02  3.64140000e+03  1.70800000e-09  0.00000000e+00
1.78089970e-03  3.83681087e+00  1.06400000e-02  3.60600000e+03  1.83700000e-09  0.00000000e+00
1.79870870e-03  3.83674535e+00  1.06420000e-02  3.57090000e+03  1.97600000e-09  0.00000000e+00
1.81669580e-03  3.83667529e+00  1.06430000e-02  3.53610000e+03  2.12500000e-09  0.00000000e+00
1.83486270e-03  3.83660065e+00  1.06450000e-02  3.50170000e+03  2.28500000e-09  0.00000000e+00
1.85321130e-03  3.83652139e+00  1.06470000e-02  3.46760000e+03  2.45700000e-09  0.00000000e+00
1.87174340e-03  3.83643746e+00  1.06490000e-02  3.43380000e+03  2.64100000e-09  0.00000000e+00
1.89046080e-03  3.83634882e+00  1.06510000e-02  3.40040000e+03  2.83900000e-09  0.00000000e+00
1.90936540e-03  3.83625542e+00  1.06530000e-02  3.36730000e+03  3.05100000e-09  0.00000000e+00
1.92845900e-03  3.83615720e+00  1.06540000e-02  3.33460000e+03  3.27900000e-09  0.00000000e+00
1.94774360e-03  3.83605411e+00  1.06560000e-02  3.30220000e+03  3.52300000e-09  0.00000000e+00
1.96722100e-03  3.83594608e+00  1.06580000e-02  3.27010000e+03  3.78400000e-09  0.00000000e+00
1.98689320e-03  3.83583306e+00  1.06600000e-02  3.23830000e+03  4.06400000e-09  0.00000000e+00
2.00676210e-03  3.83571499e+00  1.06620000e-02  3.20680000e+03  4.36500000e-09  0.00000000e+00
2.02682970e-03  3.83559178e+00  1.06640000e-02  3.17570000e+03  4.68700000e-09  0.00000000e+00
2.04709800e-03  3.83546338e+00  1.06660000e-02  3.14480000e+03  5.03200000e-09  0.00000000e+00
2.06756900e-03  3.83532971e+00  1.06680000e-02  3.11430000e+03  5.40100000e-09  0.00000000e+00
2.08824460e-03  3.83519069e+00  1.06700000e-02  3.08400000e+03  5.79700000e-09  0.00000000e+00
2.10912710e-03  3.83504625e+00  1.06720000e-02  3.05410000e+03  6.22100000e-09  0.00000000e+00
2.13021830e-03  3.83489631e+00  1.06750000e-02  3.02440000e+03  6.67500000e-09  0.00000000e+00
2.15152050e-03  3.83474077e+00  1.06770000e-02  2.99510000e+03  7.16100000e-09  0.00000000e+00
2.17303570e-03  3.83457957e+00  1.06790000e-02  2.96600000e+03  7.68200000e-09  0.00000000e+00
2.19476600e-03  3.83441259e+00  1.06810000e-02  2.93730000e+03  8.23900000e-09  0.00000000e+00
2.21671360e-03  3.83423976e+00  1.06830000e-02  2.90880000e+03  8.83500000e-09  0.00000000e+00
2.23888080e-03  3.83406098e+00  1.06850000e-02  2.88060000e+03  9.47300000e-09  0.00000000e+00
2.26126950e-03  3.83387614e+00  1.06880000e-02  2.85270000e+03  1.01600000e-08  0.00000000e+00
2.28388220e-03  3.83368516e+00  1.06900000e-02  2.82500000e+03  1.08900000e-08  0.00000000e+00
2.30672100e-03  3.83348792e+00  1.06920000e-02  2.79770000e+03  1.16700000e-08  0.00000000e+00
2.32978820e-03  3.83328432e+00  1.06950000e-02  2.77060000e+03  1.25000000e-08  0.00000000e+00
2.35308610e-03  3.83307425e+00  1.06970000e-02  2.74370000e+03  1.33900000e-08  0.00000000e+00
2.37661690e-03  3.83285760e+00  1.06990000e-02  2.71720000e+03  1.43500000e-08  0.00000000e+00
2.40038310e-03  3.83263425e+00  1.07020000e-02  2.69090000e+03  1.53700000e-08  0.00000000e+00
2.42438690e-03  3.83240409e+00  1.07040000e-02  2.66480000e+03  1.64600000e-08  0.00000000e+00
2.44863070e-03  3.83216698e+00  1.07070000e-02  2.63900000e+03  1.76300000e-08  0.00000000e+00
2.47311700e-03  3.83192282e+00  1.07090000e-02  2.61350000e+03  1.88700000e-08  0.00000000e+00
2.49784810e-03  3.83167146e+00  1.07120000e-02  2.58830000e+03  2.02000000e-08  0.00000000e+00
2.52282660e-03  3.83141278e+00  1.07140000e-02  2.56320000e+03  2.16200000e-08  0.00000000e+00
2.54805480e-03  3.83114665e+00  1.07170000e-02  2.53850000e+03  2.31400000e-08  0.00000000e+00
2.57353540e-03  3.83087293e+00  1.07190000e-02  2.51390000e+03  2.47600000e-08  0.00000000e+00
2.59927070e-03  3.83059147e+00  1.07220000e-02  2.48970000e+03  2.64900000e-08  0.00000000e+00
2.62526340e-03  3.83030213e+00  1.07250000e-02  2.46560000e+03  2.83400000e-08  0.00000000e+00
2.65151600e-03  3.83000477e+00  1.07270000e-02  2.44180000e+03  3.03100000e-08  0.00000000e+00
2.67803110e-03  3.82969923e+00  1.07300000e-02  2.41830000e+03  3.24200000e-08  0.00000000e+00
2.70481140e-03  3.82938536e+00  1.07330000e-02  2.39490000e+03  3.46600000e-08  0.00000000e+00
2.73185950e-03  3.82906299e+00  1.07350000e-02  2.37180000e+03  3.70600000e-08  0.00000000e+00
2.75917810e-03  3.82873197e+00  1.07380000e-02  2.34900000e+03  3.96200000e-08  0.00000000e+00
2.78676980e-03  3.82839214e+00  1.07410000e-02  2.32630000e+03  4.23400000e-08  0.00000000e+00
2.81463750e-03  3.82804331e+00  1.07440000e-02  2.30390000e+03  4.52500000e-08  0.00000000e+00
2.84278380e-03  3.82768531e+00  1.07470000e-02  2.28170000e+03  4.83500000e-08  0.00000000e+00
2.87121160e-03  3.82731798e+00  1.07500000e-02  2.25970000e+03  5.16600000e-08  0.00000000e+00
2.89992370e-03  3.82694112e+00  1.07530000e-02  2.23800000e+03  5.51800000e-08  0.00000000e+00
2.92892290e-03  3.82655454e+00  1.07560000e-02  2.21640000e+03  5.89400000e-08  0.00000000e+00
2.95821210e-03  3.82615807e+00  1.07590000e-02  2.19510000e+03  6.29400000e-08  0.00000000e+00
2.98779420e-03  3.82575150e+00  1.07620000e-02  2.17400000e+03  6.72100000e-08  0.00000000e+00
3.01767220e-03  3.82533463e+00  1.07650000e-02  2.15310000e+03  7.17500000e-08  0.00000000e+00
3.04784880e-03  3.82490726e+00  1.07680000e-02  2.13240000e+03  7.66000000e-08  0.00000000e+00
3.07832730e-03  3.82446918e+00  1.07710000e-02  2.11190000e+03  8.17500000e-08  0.00000000e+00
3.10911050e-03  3.82402017e+00  1.07750000e-02  2.09160000e+03  8.72400000e-08  0.00000000e+00
3.14020160e-03  3.82356003e+00  1.07780000e-02  2.07160000e+03  9.30900000e-08  0.00000000e+00
3.17160360e-03  3.82308851e+00  1.07810000e-02  2.05170000e+03  9.93200000e-08  0.00000000e+00
3.20331960e-03  3.82260541e+00  1.07850000e-02  2.03200000e+03  1.05900000e-07  0.00000000e+00
3.23535280e-03  3.82211047e+00  1.07880000e-02  2.01250000e+03  1.13000000e-07  0.00000000e+00
3.26770630e-03  3.82160347e+00  1.07910000e-02  1.99320000e+03  1.20500000e-07  0.00000000e+00
3.30038330e-03  3.82108416e+00  1.07950000e-02  1.97410000e+03  1.28500000e-07  0.00000000e+00
3.33338710e-03  3.82055229e+00  1.07980000e-02  1.95520000e+03  1.37000000e-07  0.00000000e+00
3.36672100e-03  3.82000760e+00  1.08020000e-02  1.93650000e+03  1.46000000e-07  0.00000000e+00
3.40038810e-03  3.81944983e+00  1.08050000e-02  1.91790000e+03  1.55600000e-07  0.00000000e+00
3.43439200e-03  3.81887872e+00  1.08090000e-02  1.89960000e+03  1.65900000e-07  0.00000000e+00
3.46873590e-03  3.81829399e+00  1.08130000e-02  1.88140000e+03  1.76700000e-07  0.00000000e+00
3.50342320e-03  3.81769536e+00  1.08160000e-02  1.86340000e+03  1.88300000e-07  0.00000000e+00
3.53845740e-03  3.81708256e+00  1.08200000e-02  1.84560000e+03  2.00600000e-07  0.00000000e+00
3.57384190e-03  3.81645527e+00  1.08240000e-02  1.82800000e+03  2.13600000e-07  0.00000000e+00
3.60958030e-03  3.81581321e+00  1.08280000e-02  1.81050000e+03  2.27500000e-07  0.00000000e+00
3.64567610e-03  3.81515608e+00  1.08320000e-02  1.79330000e+03  2.42200000e-07  0.00000000e+00
3.68213280e-03  3.81448355e+00  1.08360000e-02  1.77610000e+03  2.57900000e-07  0.00000000e+00
3.71895410e-03  3.81379531e+00  1.08400000e-02  1.75920000e+03  2.74500000e-07  0.00000000e+00
3.75614360e-03  3.81309104e+00  1.08440000e-02  1.74240000e+03  2.92200000e-07  0.00000000e+00
3.79370500e-03  3.81237039e+00  1.08480000e-02  1.72580000e+03  3.10900000e-07  0.00000000e+00
3.83164200e-03  3.81163303e+00  1.08520000e-02  1.70940000e+03  3.30800000e-07  0.00000000e+00
3.86995840e-03  3.81087861e+00  1.08560000e-02  1.69310000e+03  3.52000000e-07  0.00000000e+00
3.90865800e-03  3.81010677e+00  1.08600000e-02  1.67700000e+03  3.74400000e-07  0.00000000e+00
3.94774450e-03  3.80931714e+00  1.08650000e-02  1.66110000e+03  3.98200000e-07  0.00000000e+00
3.98722190e-03  3.80850935e+00  1.08690000e-02  1.64530000e+03  4.23500000e-07  0.00000000e+00
4.02709410e-03  3.80768302e+00  1.08730000e-02  1.62970000e+03  4.50300000e-07  0.00000000e+00
4.06736500e-03  3.80683776e+00  1.08780000e-02  1.61420000e+03  4.78800000e-07  0.00000000e+00
4.10803860e-03  3.80597317e+00  1.08820000e-02  1.59890000e+03  5.08900000e-07  0.00000000e+00
4.14911890e-03  3.80508883e+00  1.08870000e-02  1.58370000e+03  5.40900000e-07  0.00000000e+00
4.19061010e-03  3.80418433e+00  1.08920000e-02  1.56870000e+03  5.74900000e-07  0.00000000e+00
4.23251620e-03  3.80325924e+00  1.08960000e-02  1.55380000e+03  6.10800000e-07  0.00000000e+00
4.27484130e-03  3.80231313e+00  1.09010000e-02  1.53910000e+03  6.49000000e-07  0.00000000e+00
4.31758960e-03  3.80134553e+00  1.09060000e-02  1.52450000e+03  6.89400000e-07  0.00000000e+00
4.36076550e-03  3.80035600e+00  1.09110000e-02  1.51010000e+03  7.32300000e-07  0.00000000e+00
4.40437310e-03  3.79934407e+00  1.09160000e-02  1.49580000e+03  7.77700000e-07  0.00000000e+00
4.44841680e-03  3.79830925e+00  1.09210000e-02  1.48170000e+03  8.25800000e-07  0.00000000e+00
4.49290090e-03  3.79725105e+00  1.09260000e-02  1.46770000e+03  8.76700000e-07  0.00000000e+00
4.53782990e-03  3.79616897e+00  1.09310000e-02  1.45390000e+03  9.30700000e-07  0.00000000e+00
4.58320820e-03  3.79506249e+00  1.09360000e-02  1.44020000e+03  9.87900000e-07  0.00000000e+00
4.62904020e-03  3.79393109e+00  1.09410000e-02  1.42660000e+03  1.04800000e-06  0.00000000e+00
4.67533060e-03  3.79277423e+00  1.09470000e-02  1.41310000e+03  1.11200000e-06  0.00000000e+00
4.72208380e-03  3.79159134e+00  1.09520000e-02  1.39980000e+03  1.18000000e-06  0.00000000e+00
4.76930460e-03  3.79038188e+00  1.09570000e-02  1.38670000e+03  1.25200000e-06  0.00000000e+00
4.81699760e-03  3.78914525e+00  1.09630000e-02  1.37360000e+03  1.32800000e-06  0.00000000e+00
4.86516750e-03  3.78788087e+00  1.09690000e-02  1.36070000e+03  1.40900000e-06  0.00000000e+00
4.91381920e-03  3.78658812e+00  1.09740000e-02  1.34800000e+03  1.49400000e-06  0.00000000e+00
4.96295730e-03  3.78526639e+00  1.09800000e-02  1.33530000e+03  1.58400000e-06  0.00000000e+00
5.01258680e-03  3.78391504e+00  1.09860000e-02  1.32280000e+03  1.67900000e-06  0.00000000e+00
5.06271270e-03  3.78253341e+00  1.09920000e-02  1.31040000e+03  1.78000000e-06  0.00000000e+00
5.11333970e-03  3.78112083e+00  1.09980000e-02  1.29810000e+03  1.88600000e-06  0.00000000e+00
5.16447310e-03  3.77967663e+00  1.10040000e-02  1.28600000e+03  1.99900000e-06  0.00000000e+00
5.21611780e-03  3.77820010e+00  1.10100000e-02  1.27400000e+03  2.11800000e-06  0.00000000e+00
5.26827890e-03  3.77669051e+00  1.10160000e-02  1.26210000e+03  2.24400000e-06  0.00000000e+00
5.32096160e-03  3.77514714e+00  1.10230000e-02  1.25030000e+03  2.37700000e-06  0.00000000e+00
5.37417120e-03  3.77356923e+00  1.10290000e-02  1.23860000e+03  2.51700000e-06  0.00000000e+00
5.42791290e-03  3.77195601e+00  1.10350000e-02  1.22710000e+03  2.66600000e-06  0.00000000e+00
5.48219190e-03  3.77030667e+00  1.10420000e-02  1.21570000e+03  2.82200000e-06  0.00000000e+00
5.53701380e-03  3.76862041e+00  1.10490000e-02  1.20440000e+03  2.98800000e-06  0.00000000e+00
5.59238390e-03  3.76689639e+00  1.10560000e-02  1.19320000e+03  3.16300000e-06  0.00000000e+00
5.64830770e-03  3.76513376e+00  1.10620000e-02  1.18210000e+03  3.34800000e-06  0.00000000e+00
5.70479070e-03  3.76333164e+00  1.10690000e-02  1.17110000e+03  3.54300000e-06  0.00000000e+00
5.76183850e-03  3.76148914e+00  1.10770000e-02  1.16030000e+03  3.74900000e-06  0.00000000e+00
5.81945690e-03  3.75960532e+00  1.10840000e-02  1.14950000e+03  3.96600000e-06  0.00000000e+00
5.87765140e-03  3.75767924e+00  1.10910000e-02  1.13890000e+03  4.19600000e-06  0.00000000e+00
5.93642780e-03  3.75570994e+00  1.10980000e-02  1.12840000e+03  4.43800000e-06  0.00000000e+00
5.99579210e-03  3.75369640e+00  1.11060000e-02  1.11800000e+03  4.69400000e-06  0.00000000e+00
6.05574990e-03  3.75163762e+00  1.11130000e-02  1.10770000e+03  4.96300000e-06  0.00000000e+00
6.11630740e-03  3.74953254e+00  1.11210000e-02  1.09740000e+03  5.24700000e-06  0.00000000e+00
6.17747040e-03  3.74738008e+00  1.11290000e-02  1.08730000e+03  5.54700000e-06  0.00000000e+00
6.23924500e-03  3.74517914e+00  1.11370000e-02  1.07740000e+03  5.86400000e-06  0.00000000e+00
6.30163740e-03  3.74292858e+00  1.11450000e-02  1.06750000e+03  6.19700000e-06  0.00000000e+00
6.36465370e-03  3.74062723e+00  1.11530000e-02  1.05770000e+03  6.54900000e-06  0.00000000e+00
6.42830020e-03  3.73827390e+00  1.11620000e-02  1.04800000e+03  6.91900000e-06  0.00000000e+00
6.49258320e-03  3.73586734e+00  1.11700000e-02  1.03840000e+03  7.31000000e-06  0.00000000e+00
6.55750890e-03  3.73340630e+00  1.11790000e-02  1.02890000e+03  7.72100000e-06  0.00000000e+00
6.62308400e-03  3.73088947e+00  1.11870000e-02  1.01950000e+03  8.15500000e-06  0.00000000e+00
6.68931470e-03  3.72831551e+00  1.11960000e-02  1.01020000e+03  8.61200000e-06  0.00000000e+00
6.75620780e-03  3.72568305e+00  1.12050000e-02  1.00100000e+03  9.09300000e-06  0.00000000e+00
6.82376980e-03  3.72299068e+00  1.12140000e-02  9.91910000e+02  9.60000000e-06  0.00000000e+00
6.89200750e-03  3.72023694e+00  1.12240000e-02  9.82900000e+02  1.01300000e-05  0.00000000e+00
6.96092750e-03  3.71742032e+00  1.12330000e-02  9.73990000e+02  1.07000000e-05  0.00000000e+00
7.03053670e-03  3.71453930e+00  1.12430000e-02  9.65170000e+02  1.12900000e-05  0.00000000e+00
7.10084200e-03  3.71159228e+00  1.12520000e-02  9.56450000e+02  1.19100000e-05  0.00000000e+00
7.17185030e-03  3.70857764e+00  1.12620000e-02  9.47810000e+02  1.25700000e-05  0.00000000e+00
7.24356880e-03  3.70549368e+00  1.12720000e-02  9.39270000e+02  1.32600000e-05  0.00000000e+00
