#  Br:    Z = 35;   Atomic weight = 79.90400 g/mol ;    nominal density:   [INLINE] = 3.1100E+00 g/cm3
#         a(barns/atom) = (cm2/g)    1.32684E+02
#         E(eV) (cm2/g) = f2(e/atom)    5.26636E+05
#         9 edges. Edge energies (keV):
# K      1.34737E+01  L I    1.78200E+00  L II   1.59600E+00  L III  1.54990E+00
# M I    2.56500E-01  M II   1.89300E-01  M III  1.81500E-01  M IV   7.01000E-02
# M V    6.90000E-02
#         Relativistic correction estimate frel (H82,3/5CL) = -2.2007E-01, -1.3860E-01 e/atom
#         Nuclear Thomson correction fNT = -8.4102E-03 e/atom
#    _________________________________________________________________________________________________________
#  Form Factors, Attenuation and Scattering Cross-sections
#  Z=35, E = 0.001 - 1000 keV
#                                                             Attenuation
#    E         f1            f2                     [INLINE] (coh+inc) Coefficient    K       wavelength
#    keV       e/atom       e/atom      cm2/g       cm2/g      cm2/g          cm2/g        nm
1.01000000e-03  8.14565709e+00  8.39260000e-03  4.37610000e+03  7.15700000e-11  0.00000000e+00
1.02010000e-03  8.14707196e+00  8.39300000e-03  4.33300000e+03  7.73700000e-11  0.00000000e+00
1.03030100e-03  8.14794970e+00  8.39340000e-03  4.29020000e+03  8.36200000e-11  0.00000000e+00
1.04060400e-03  8.14868725e+00  8.39370000e-03  4.24800000e+03  9.03700000e-11  0.00000000e+00
1.05101010e-03  8.14927545e+00  8.39410000e-03  4.20610000e+03  9.76400000e-11  0.00000000e+00
1.06152010e-03  8.14970850e+00  8.39450000e-03  4.16460000e+03  1.05500000e-10  0.00000000e+00
1.07213530e-03  8.15009354e+00  8.39480000e-03  4.12360000e+03  1.13900000e-10  0.00000000e+00
1.08285670e-03  8.15044060e+00  8.39520000e-03  4.08290000e+03  1.23100000e-10  0.00000000e+00
1.09368520e-03  8.15075691e+00  8.39560000e-03  4.04270000e+03  1.32900000e-10  0.00000000e+00
1.10462210e-03  8.15104784e+00  8.39600000e-03  4.00290000e+03  1.43500000e-10  0.00000000e+00
1.11566830e-03  8.15131747e+00  8.39640000e-03  3.96340000e+03  1.54900000e-10  0.00000000e+00
1.12682500e-03  8.15156895e+00  8.39680000e-03  3.92430000e+03  1.67200000e-10  0.00000000e+00
1.13809320e-03  8.15180479e+00  8.39720000e-03  3.88570000e+03  1.80400000e-10  0.00000000e+00
1.14947410e-03  8.15202702e+00  8.39760000e-03  3.84740000e+03  1.94700000e-10  0.00000000e+00
1.16096880e-03  8.15223726e+00  8.39800000e-03  3.80950000e+03  2.10100000e-10  0.00000000e+00
1.17257850e-03  8.15243688e+00  8.39840000e-03  3.77200000e+03  2.26600000e-10  0.00000000e+00
1.18430430e-03  8.15262701e+00  8.39890000e-03  3.73480000e+03  2.44500000e-10  0.00000000e+00
1.19614730e-03  8.15280859e+00  8.39930000e-03  3.69800000e+03  2.63600000e-10  0.00000000e+00
1.20810880e-03  8.15298245e+00  8.39970000e-03  3.66160000e+03  2.84300000e-10  0.00000000e+00
1.22018990e-03  8.15314927e+00  8.40010000e-03  3.62550000e+03  3.06500000e-10  0.00000000e+00
1.23239180e-03  8.15330966e+00  8.40060000e-03  3.58980000e+03  3.30400000e-10  0.00000000e+00
1.24471570e-03  8.15346414e+00  8.40100000e-03  3.55440000e+03  3.56100000e-10  0.00000000e+00
1.25716280e-03  8.15361316e+00  8.40150000e-03  3.51940000e+03  3.83800000e-10  0.00000000e+00
1.26973440e-03  8.15375714e+00  8.40190000e-03  3.48480000e+03  4.13500000e-10  0.00000000e+00
1.28243180e-03  8.15389641e+00  8.40240000e-03  3.45050000e+03  4.45500000e-10  0.00000000e+00
1.29525610e-03  8.15403131e+00  8.40280000e-03  3.41650000e+03  4.79900000e-10  0.00000000e+00
1.30820860e-03  8.15416212e+00  8.40330000e-03  3.38280000e+03  5.16900000e-10  0.00000000e+00
1.32129070e-03  8.15428907e+00  8.40370000e-03  3.34950000e+03  5.56700000e-10  0.00000000e+00
1.33450360e-03  8.15441241e+00  8.40420000e-03  3.31660000e+03  5.99400000e-10  0.00000000e+00
1.34784860e-03  8.15453234e+00  8.40470000e-03  3.28390000e+03  6.45300000e-10  0.00000000e+00
1.36132710e-03  8.15464904e+00  8.40520000e-03  3.25160000e+03  6.94700000e-10  0.00000000e+00
1.37494030e-03  8.15476268e+00  8.40570000e-03  3.21960000e+03  7.47700000e-10  0.00000000e+00
1.38868970e-03  8.15487342e+00  8.40620000e-03  3.18790000e+03  8.04600000e-10  0.00000000e+00
1.40257660e-03  8.15498139e+00  8.40670000e-03  3.15650000e+03  8.65800000e-10  0.00000000e+00
1.41660240e-03  8.15508672e+00  8.40720000e-03  3.12540000e+03  9.31400000e-10  0.00000000e+00
1.43076840e-03  8.15518954e+00  8.40770000e-03  3.09470000e+03  1.00200000e-09  0.00000000e+00
1.44507600e-03  8.15528993e+00  8.40820000e-03  3.06420000e+03  1.07800000e-09  0.00000000e+00
1.45952680e-03  8.15538801e+00  8.40870000e-03  3.03410000e+03  1.15900000e-09  0.00000000e+00
1.47412200e-03  8.15548387e+00  8.40920000e-03  3.00420000e+03  1.24600000e-09  0.00000000e+00
1.48886320e-03  8.15557759e+00  8.40980000e-03  2.97470000e+03  1.34000000e-09  0.00000000e+00
1.50375190e-03  8.15566924e+00  8.41030000e-03  2.94540000e+03  1.44000000e-09  0.00000000e+00
1.51878940e-03  8.15575890e+00  8.41080000e-03  2.91640000e+03  1.54800000e-09  0.00000000e+00
1.53397720e-03  8.15584663e+00  8.41140000e-03  2.88770000e+03  1.66300000e-09  0.00000000e+00
1.54931700e-03  8.15593249e+00  8.41190000e-03  2.85930000e+03  1.78700000e-09  0.00000000e+00
1.56481020e-03  8.15601655e+00  8.41250000e-03  2.83120000e+03  1.92000000e-09  0.00000000e+00
1.58045820e-03  8.15609884e+00  8.41300000e-03  2.80340000e+03  2.06200000e-09  0.00000000e+00
1.59626280e-03  8.15617943e+00  8.41360000e-03  2.77580000e+03  2.21500000e-09  0.00000000e+00
1.61222540e-03  8.15625836e+00  8.41420000e-03  2.74850000e+03  2.37800000e-09  0.00000000e+00
1.62834770e-03  8.15633566e+00  8.41480000e-03  2.72150000e+03  2.55400000e-09  0.00000000e+00
1.64463110e-03  8.15641138e+00  8.41530000e-03  2.69470000e+03  2.74100000e-09  0.00000000e+00
1.66107740e-03  8.15648555e+00  8.41590000e-03  2.66820000e+03  2.94300000e-09  0.00000000e+00
1.67768820e-03  8.15655820e+00  8.41650000e-03  2.64200000e+03  3.15800000e-09  0.00000000e+00
1.69446500e-03  8.15662937e+00  8.41710000e-03  2.61600000e+03  3.38900000e-09  0.00000000e+00
1.71140970e-03  8.15669908e+00  8.41770000e-03  2.59030000e+03  3.63600000e-09  0.00000000e+00
1.72852380e-03  8.15676736e+00  8.41840000e-03  2.56490000e+03  3.90100000e-09  0.00000000e+00
1.74580900e-03  8.15683424e+00  8.41900000e-03  2.53960000e+03  4.18500000e-09  0.00000000e+00
1.76326710e-03  8.15689973e+00  8.41960000e-03  2.51470000e+03  4.48800000e-09  0.00000000e+00
1.78089970e-03  8.15696386e+00  8.42020000e-03  2.49000000e+03  4.81300000e-09  0.00000000e+00
1.79870870e-03  8.15702664e+00  8.42090000e-03  2.46550000e+03  5.16000000e-09  0.00000000e+00
1.81669580e-03  8.15708809e+00  8.42150000e-03  2.44130000e+03  5.53200000e-09  0.00000000e+00
1.83486270e-03  8.15714822e+00  8.42220000e-03  2.41730000e+03  5.93000000e-09  0.00000000e+00
1.85321130e-03  8.15720706e+00  8.42280000e-03  2.39360000e+03  6.35600000e-09  0.00000000e+00
1.87174340e-03  8.15726461e+00  8.42350000e-03  2.37000000e+03  6.81100000e-09  0.00000000e+00
1.89046080e-03  8.15732088e+00  8.42420000e-03  2.34680000e+03  7.29700000e-09  0.00000000e+00
1.90936540e-03  8.15737589e+00  8.42490000e-03  2.32370000e+03  7.81800000e-09  0.00000000e+00
1.92845900e-03  8.15742964e+00  8.42550000e-03  2.30090000e+03  8.37400000e-09  0.00000000e+00
1.94774360e-03  8.15748214e+00  8.42620000e-03  2.27830000e+03  8.96900000e-09  0.00000000e+00
1.96722100e-03  8.15753339e+00  8.42690000e-03  2.25590000e+03  9.60400000e-09  0.00000000e+00
1.98689320e-03  8.15758341e+00  8.42770000e-03  2.23380000e+03  1.02800000e-08  0.00000000e+00
2.00676210e-03  8.15763219e+00  8.42840000e-03  2.21190000e+03  1.10100000e-08  0.00000000e+00
2.02682970e-03  8.15767974e+00  8.42910000e-03  2.19020000e+03  1.17800000e-08  0.00000000e+00
2.04709800e-03  8.15772606e+00  8.42980000e-03  2.16870000e+03  1.26100000e-08  0.00000000e+00
2.06756900e-03  8.15777116e+00  8.43060000e-03  2.14740000e+03  1.35000000e-08  0.00000000e+00
2.08824460e-03  8.15781502e+00  8.43130000e-03  2.12630000e+03  1.44400000e-08  0.00000000e+00
2.10912710e-03  8.15785766e+00  8.43210000e-03  2.10540000e+03  1.54500000e-08  0.00000000e+00
2.13021830e-03  8.15789907e+00  8.43280000e-03  2.08480000e+03  1.65300000e-08  0.00000000e+00
2.15152050e-03  8.15793925e+00  8.43360000e-03  2.06430000e+03  1.76800000e-08  0.00000000e+00
2.17303570e-03  8.15797819e+00  8.43440000e-03  2.04410000e+03  1.89000000e-08  0.00000000e+00
2.19476600e-03  8.15801590e+00  8.43510000e-03  2.02400000e+03  2.02100000e-08  0.00000000e+00
2.21671360e-03  8.15805236e+00  8.43590000e-03  2.00420000e+03  2.16100000e-08  0.00000000e+00
2.23888080e-03  8.15808757e+00  8.43670000e-03  1.98450000e+03  2.31000000e-08  0.00000000e+00
2.26126950e-03  8.15812153e+00  8.43760000e-03  1.96510000e+03  2.46900000e-08  0.00000000e+00
2.28388220e-03  8.15815423e+00  8.43840000e-03  1.94580000e+03  2.63800000e-08  0.00000000e+00
2.30672100e-03  8.15818566e+00  8.43920000e-03  1.92670000e+03  2.81900000e-08  0.00000000e+00
2.32978820e-03  8.15821581e+00  8.44000000e-03  1.90780000e+03  3.01100000e-08  0.00000000e+00
2.35308610e-03  8.15824467e+00  8.44090000e-03  1.88910000e+03  3.21700000e-08  0.00000000e+00
2.37661690e-03  8.15827224e+00  8.44170000e-03  1.87060000e+03  3.43600000e-08  0.00000000e+00
2.40038310e-03  8.15829850e+00  8.44260000e-03  1.85230000e+03  3.66900000e-08  0.00000000e+00
2.42438690e-03  8.15832344e+00  8.44350000e-03  1.83410000e+03  3.91800000e-08  0.00000000e+00
2.44863070e-03  8.15834705e+00  8.44430000e-03  1.81620000e+03  4.18300000e-08  0.00000000e+00
2.47311700e-03  8.15836932e+00  8.44520000e-03  1.79840000e+03  4.46500000e-08  0.00000000e+00
2.49784810e-03  8.15839024e+00  8.44610000e-03  1.78070000e+03  4.76600000e-08  0.00000000e+00
2.52282660e-03  8.15840978e+00  8.44700000e-03  1.76330000e+03  5.08600000e-08  0.00000000e+00
2.54805480e-03  8.15842794e+00  8.44790000e-03  1.74600000e+03  5.42700000e-08  0.00000000e+00
2.57353540e-03  8.15844470e+00  8.44890000e-03  1.72890000e+03  5.79000000e-08  0.00000000e+00
2.59927070e-03  8.15846005e+00  8.44980000e-03  1.71200000e+03  6.17700000e-08  0.00000000e+00
2.62526340e-03  8.15847396e+00  8.45070000e-03  1.69520000e+03  6.58800000e-08  0.00000000e+00
2.65151600e-03  8.15848642e+00  8.45170000e-03  1.67860000e+03  7.02600000e-08  0.00000000e+00
2.67803110e-03  8.15849741e+00  8.45260000e-03  1.66220000e+03  7.49200000e-08  0.00000000e+00
2.70481140e-03  8.15850692e+00  8.45360000e-03  1.64590000e+03  7.98800000e-08  0.00000000e+00
2.73185950e-03  8.15851492e+00  8.45460000e-03  1.62980000e+03  8.51500000e-08  0.00000000e+00
2.75917810e-03  8.15852140e+00  8.45560000e-03  1.61390000e+03  9.07700000e-08  0.00000000e+00
2.78676980e-03  8.15852633e+00  8.45660000e-03  1.59810000e+03  9.67300000e-08  0.00000000e+00
2.81463750e-03  8.15852969e+00  8.45760000e-03  1.58250000e+03  1.03100000e-07  0.00000000e+00
2.84278380e-03  8.15853146e+00  8.45860000e-03  1.56700000e+03  1.09800000e-07  0.00000000e+00
2.87121160e-03  8.15853162e+00  8.45970000e-03  1.55170000e+03  1.17000000e-07  0.00000000e+00
2.89992370e-03  8.15853014e+00  8.46070000e-03  1.53650000e+03  1.24600000e-07  0.00000000e+00
2.92892290e-03  8.15852700e+00  8.46180000e-03  1.52150000e+03  1.32700000e-07  0.00000000e+00
2.95821210e-03  8.15852217e+00  8.46280000e-03  1.50660000e+03  1.41300000e-07  0.00000000e+00
2.98779420e-03  8.15851563e+00  8.46390000e-03  1.49190000e+03  1.50500000e-07  0.00000000e+00
3.01767220e-03  8.15850736e+00  8.46500000e-03  1.47730000e+03  1.60200000e-07  0.00000000e+00
3.04784880e-03  8.15849731e+00  8.46610000e-03  1.46290000e+03  1.70500000e-07  0.00000000e+00
3.07832730e-03  8.15848548e+00  8.46720000e-03  1.44860000e+03  1.81500000e-07  0.00000000e+00
3.10911050e-03  8.15847182e+00  8.46830000e-03  1.43440000e+03  1.93200000e-07  0.00000000e+00
3.14020160e-03  8.15845631e+00  8.46950000e-03  1.42040000e+03  2.05500000e-07  0.00000000e+00
3.17160360e-03  8.15843891e+00  8.47060000e-03  1.40650000e+03  2.18700000e-07  0.00000000e+00
3.20331960e-03  8.15841961e+00  8.47180000e-03  1.39280000e+03  2.32600000e-07  0.00000000e+00
3.23535280e-03  8.15839835e+00  8.47290000e-03  1.37920000e+03  2.47400000e-07  0.00000000e+00
3.26770630e-03  8.15837512e+00  8.47410000e-03  1.36570000e+03  2.63100000e-07  0.00000000e+00
3.30038330e-03  8.15834988e+00  8.47530000e-03  1.35240000e+03  2.79800000e-07  0.00000000e+00
3.33338710e-03  8.15832259e+00  8.47650000e-03  1.33920000e+03  2.97400000e-07  0.00000000e+00
3.36672100e-03  8.15829322e+00  8.47770000e-03  1.32610000e+03  3.16200000e-07  0.00000000e+00
3.40038810e-03  8.15826174e+00  8.47900000e-03  1.31320000e+03  3.36100000e-07  0.00000000e+00
3.43439200e-03  8.15822810e+00  8.48020000e-03  1.30040000e+03  3.57200000e-07  0.00000000e+00
3.46873590e-03  8.15819226e+00  8.48150000e-03  1.28770000e+03  3.79500000e-07  0.00000000e+00
3.50342320e-03  8.15815420e+00  8.48270000e-03  1.27510000e+03  4.03300000e-07  0.00000000e+00
3.53845740e-03  8.15811386e+00  8.48400000e-03  1.26270000e+03  4.28400000e-07  0.00000000e+00
3.57384190e-03  8.15807122e+00  8.48530000e-03  1.25040000e+03  4.55000000e-07  0.00000000e+00
3.60958030e-03  8.15802622e+00  8.48660000e-03  1.23820000e+03  4.83300000e-07  0.00000000e+00
3.64567610e-03  8.15797882e+00  8.48800000e-03  1.22610000e+03  5.13200000e-07  0.00000000e+00
3.68213280e-03  8.15792899e+00  8.48930000e-03  1.21420000e+03  5.44900000e-07  0.00000000e+00
3.71895410e-03  8.15787667e+00  8.49060000e-03  1.20230000e+03  5.78500000e-07  0.00000000e+00
3.75614360e-03  8.15782182e+00  8.49200000e-03  1.19060000e+03  6.14100000e-07  0.00000000e+00
3.79370500e-03  8.15776440e+00  8.49340000e-03  1.17900000e+03  6.51700000e-07  0.00000000e+00
3.83164200e-03  8.15770436e+00  8.49480000e-03  1.16760000e+03  6.91600000e-07  0.00000000e+00
3.86995840e-03  8.15764164e+00  8.49620000e-03  1.15620000e+03  7.33900000e-07  0.00000000e+00
3.90865800e-03  8.15757620e+00  8.49760000e-03  1.14490000e+03  7.78600000e-07  0.00000000e+00
3.94774450e-03  8.15750799e+00  8.49900000e-03  1.13380000e+03  8.25900000e-07  0.00000000e+00
3.98722190e-03  8.15743695e+00  8.50050000e-03  1.12280000e+03  8.76000000e-07  0.00000000e+00
4.02709410e-03  8.15736304e+00  8.50200000e-03  1.11180000e+03  9.29100000e-07  0.00000000e+00
4.06736500e-03  8.15728619e+00  8.50350000e-03  1.10100000e+03  9.85200000e-07  0.00000000e+00
4.10803860e-03  8.15720636e+00  8.50500000e-03  1.09030000e+03  1.04500000e-06  0.00000000e+00
4.14911890e-03  8.15712349e+00  8.50650000e-03  1.07970000e+03  1.10700000e-06  0.00000000e+00
4.19061010e-03  8.15703751e+00  8.50800000e-03  1.06920000e+03  1.17400000e-06  0.00000000e+00
4.23251620e-03  8.15694837e+00  8.50950000e-03  1.05880000e+03  1.24400000e-06  0.00000000e+00
4.27484130e-03  8.15685601e+00  8.51110000e-03  1.04850000e+03  1.31800000e-06  0.00000000e+00
4.31758960e-03  8.15676036e+00  8.51270000e-03  1.03830000e+03  1.39700000e-06  0.00000000e+00
4.36076550e-03  8.15666137e+00  8.51430000e-03  1.02820000e+03  1.48000000e-06  0.00000000e+00
4.40437310e-03  8.15655897e+00  8.51590000e-03  1.01830000e+03  1.56700000e-06  0.00000000e+00
4.44841680e-03  8.15645309e+00  8.51750000e-03  1.00840000e+03  1.66000000e-06  0.00000000e+00
4.49290090e-03  8.15634367e+00  8.51920000e-03  9.98580000e+02  1.75800000e-06  0.00000000e+00
4.53782990e-03  8.15623063e+00  8.52080000e-03  9.88880000e+02  1.86100000e-06  0.00000000e+00
4.58320820e-03  8.15611392e+00  8.52250000e-03  9.79280000e+02  1.97100000e-06  0.00000000e+00
4.62904020e-03  8.15599345e+00  8.52420000e-03  9.69780000e+02  2.08600000e-06  0.00000000e+00
4.67533060e-03  8.15586915e+00  8.52590000e-03  9.60370000e+02  2.20800000e-06  0.00000000e+00
4.72208380e-03  8.15574095e+00  8.52770000e-03  9.51060000e+02  2.33700000e-06  0.00000000e+00
4.76930460e-03  8.15560877e+00  8.52940000e-03  9.41830000e+02  2.47300000e-06  0.00000000e+00
4.81699760e-03  8.15547253e+00  8.53120000e-03  9.32700000e+02  2.61700000e-06  0.00000000e+00
4.86516750e-03  8.15533216e+00  8.53300000e-03  9.23660000e+02  2.76800000e-06  0.00000000e+00
4.91381920e-03  8.15518757e+00  8.53480000e-03  9.14710000e+02  2.92800000e-06  0.00000000e+00
4.96295730e-03  8.15503869e+00  8.53660000e-03  9.05850000e+02  3.09700000e-06  0.00000000e+00
5.01258680e-03  8.15488542e+00  8.53850000e-03  8.97070000e+02  3.27500000e-06  0.00000000e+00
5.06271270e-03  8.15472768e+00  8.54030000e-03  8.88390000e+02  3.46300000e-06  0.00000000e+00
5.11333970e-03  8.15456538e+00  8.54220000e-03  8.79780000e+02  3.66100000e-06  0.00000000e+00
5.16447310e-03  8.15439843e+00  8.54410000e-03  8.71270000e+02  3.87000000e-06  0.00000000e+00
5.21611780e-03  8.15422674e+00  8.54600000e-03  8.62840000e+02  4.09000000e-06  0.00000000e+00
5.26827890e-03  8.15405022e+00  8.54800000e-03  8.54490000e+02  4.32300000e-06  0.00000000e+00
5.32096160e-03  8.15386877e+00  8.55000000e-03  8.46220000e+02  4.56800000e-06  0.00000000e+00
5.37417120e-03  8.15368228e+00  8.55190000e-03  8.38040000e+02  4.82600000e-06  0.00000000e+00
5.42791290e-03  8.15349068e+00  8.55390000e-03  8.29940000e+02  5.09800000e-06  0.00000000e+00
5.48219190e-03  8.15329384e+00  8.55600000e-03  8.21910000e+02  5.38500000e-06  0.00000000e+00
5.53701380e-03  8.15309167e+00  8.55800000e-03  8.13970000e+02  5.68800000e-06  0.00000000e+00
5.59238390e-03  8.15288406e+00  8.56010000e-03  8.06110000e+02  6.00600000e-06  0.00000000e+00
5.64830770e-03  8.15267090e+00  8.56220000e-03  7.98320000e+02  6.34200000e-06  0.00000000e+00
5.70479070e-03  8.15245209e+00  8.56430000e-03  7.90610000e+02  6.69500000e-06  0.00000000e+00
5.76183850e-03  8.15222750e+00  8.56650000e-03  7.82980000e+02  7.06800000e-06  0.00000000e+00
5.81945690e-03  8.15199703e+00  8.56860000e-03  7.75420000e+02  7.46000000e-06  0.00000000e+00
5.87765140e-03  8.15176055e+00  8.57080000e-03  7.67940000e+02  7.87300000e-06  0.00000000e+00
5.93642780e-03  8.15151795e+00  8.57300000e-03  7.60530000e+02  8.30700000e-06  0.00000000e+00
5.99579210e-03  8.15126911e+00  8.57520000e-03  7.53200000e+02  8.76500000e-06  0.00000000e+00
6.05574990e-03  8.15101389e+00  8.57750000e-03  7.45940000e+02  9.24600000e-06  0.00000000e+00
6.11630740e-03  8.15075217e+00  8.57980000e-03  7.38750000e+02  9.75300000e-06  0.00000000e+00
6.17747040e-03  8.15048382e+00  8.58210000e-03  7.31630000e+02  1.02900000e-05  0.00000000e+00
6.23924500e-03  8.15020872e+00  8.58440000e-03  7.24580000e+02  1.08500000e-05  0.00000000e+00
6.30163740e-03  8.14992671e+00  8.58680000e-03  7.17610000e+02  1.14400000e-05  0.00000000e+00
6.36465370e-03  8.14963767e+00  8.58910000e-03  7.10700000e+02  1.20600000e-05  0.00000000e+00
6.42830020e-03  8.14934144e+00  8.59160000e-03  7.03860000e+02  1.27100000e-05  0.00000000e+00
6.49258320e-03  8.14903790e+00  8.59400000e-03  6.97090000e+02  1.34000000e-05  0.00000000e+00
6.55750890e-03  8.14872689e+00  8.59640000e-03  6.90380000e+02  1.41200000e-05  0.00000000e+00
6.62308400e-03  8.14840826e+00  8.59890000e-03  6.83750000e+02  1.48800000e-05  0.00000000e+00
6.68931470e-03  8.14808185e+00  8.60140000e-03  6.77170000e+02  1.56800000e-05  0.00000000e+00
6.75620780e-03  8.14774751e+00  8.60400000e-03  6.70670000e+02  1.65100000e-05  0.00000000e+00
6.82376980e-03  8.14740509e+00  8.60650000e-03  6.64220000e+02  1.74000000e-05  0.00000000e+00
6.89200750e-03  8.14705441e+00  8.60910000e-03  6.57850000e+02  1.83200000e-05  0.00000000e+00
6.96092750e-03  8.14669531e+00  8.61170000e-03  6.51530000e+02  1.92900000e-05  0.00000000e+00
7.03053670e-03  8.14632762e+00  8.61440000e-03  6.45280000e+02  2.03200000e-05  0.00000000e+00
7.10084200e-03  8.14595117e+00  8.61710000e-03  6.39090000e+02  2.13900000e-05  0.00000000e+00
7.17185030e-03  8.14556578e+00  8.61980000e-03  6.32960000e+02  2.25200000e-05  0.00000000e+00
7.24356880e-03  8.14517127e+00  8.62250000e-03  6.26890000e+02  2.37000000e-05  0.00000000e+00
