#  Rb:    Z = 37;   Atomic weight = 85.46780 g/mol ;    nominal density:   [INLINE] = 1.5290E+00 g/cm3
#         a(barns/atom) = (cm2/g)    1.41923E+02
#         E(eV) (cm2/g) = f2(e/atom)    4.92353E+05
#         9 edges. Edge energies (keV):
# K      1.51997E+01  L I    2.06510E+00  L II   1.86390E+00  L III  1.80440E+00
# M I    3.22100E-01  M II   2.47400E-01  M III  2.38500E-01  M IV   1.11800E-01
# M V    1.10300E-01
#         Relativistic correction estimate frel (H82,3/5CL) = -2.5194E-01, -1.5840E-01 e/atom
#         Nuclear Thomson correction fNT = -8.7870E-03 e/atom
#    _________________________________________________________________________________________________________
#  Form Factors, Attenuation and Scattering Cross-sections
#  Z=37, E = 0.001 - 1000 keV
#                                                             Attenuation
#    E         f1            f2                     [INLINE] (coh+inc) Coefficient    K       wavelength
#    keV       e/atom       e/atom      cm2/g       cm2/g      cm2/g          cm2/g        nm
1.01000000e-03  1.05836963e+01  8.00320000e-03  3.90140000e+03  7.03700000e-11  0.00000000e+00
1.02010000e-03  1.05852227e+01  8.00340000e-03  3.86290000e+03  7.60500000e-11  0.00000000e+00
1.03030100e-03  1.05860522e+01  8.00370000e-03  3.82470000e+03  8.21800000e-11  0.00000000e+00
1.04060400e-03  1.05868023e+01  8.00400000e-03  3.78700000e+03  8.87900000e-11  0.00000000e+00
1.05101010e-03  1.05872997e+01  8.00420000e-03  3.74960000e+03  9.59100000e-11  0.00000000e+00
1.06152010e-03  1.05878024e+01  8.00450000e-03  3.71260000e+03  1.03600000e-10  0.00000000e+00
1.07213530e-03  1.05881668e+01  8.00480000e-03  3.67600000e+03  1.11900000e-10  0.00000000e+00
1.08285670e-03  1.05884980e+01  8.00510000e-03  3.63980000e+03  1.20800000e-10  0.00000000e+00
1.09368520e-03  1.05888017e+01  8.00540000e-03  3.60380000e+03  1.30400000e-10  0.00000000e+00
1.10462210e-03  1.05890825e+01  8.00570000e-03  3.56830000e+03  1.40800000e-10  0.00000000e+00
1.11566830e-03  1.05893439e+01  8.00600000e-03  3.53310000e+03  1.52000000e-10  0.00000000e+00
1.12682500e-03  1.05895886e+01  8.00630000e-03  3.49820000e+03  1.64000000e-10  0.00000000e+00
1.13809320e-03  1.05898188e+01  8.00660000e-03  3.46370000e+03  1.77000000e-10  0.00000000e+00
1.14947410e-03  1.05900365e+01  8.00690000e-03  3.42960000e+03  1.90900000e-10  0.00000000e+00
1.16096880e-03  1.05902429e+01  8.00720000e-03  3.39570000e+03  2.05900000e-10  0.00000000e+00
1.17257850e-03  1.05904395e+01  8.00750000e-03  3.36230000e+03  2.22100000e-10  0.00000000e+00
1.18430430e-03  1.05906272e+01  8.00780000e-03  3.32910000e+03  2.39500000e-10  0.00000000e+00
1.19614730e-03  1.05908068e+01  8.00810000e-03  3.29630000e+03  2.58300000e-10  0.00000000e+00
1.20810880e-03  1.05909793e+01  8.00840000e-03  3.26380000e+03  2.78500000e-10  0.00000000e+00
1.22018990e-03  1.05911452e+01  8.00880000e-03  3.23160000e+03  3.00200000e-10  0.00000000e+00
1.23239180e-03  1.05913051e+01  8.00910000e-03  3.19970000e+03  3.23500000e-10  0.00000000e+00
1.24471570e-03  1.05914595e+01  8.00940000e-03  3.16820000e+03  3.48700000e-10  0.00000000e+00
1.25716280e-03  1.05916088e+01  8.00970000e-03  3.13690000e+03  3.75700000e-10  0.00000000e+00
1.26973440e-03  1.05917534e+01  8.01010000e-03  3.10600000e+03  4.04700000e-10  0.00000000e+00
1.28243180e-03  1.05918936e+01  8.01040000e-03  3.07540000e+03  4.36000000e-10  0.00000000e+00
1.29525610e-03  1.05920298e+01  8.01080000e-03  3.04500000e+03  4.69600000e-10  0.00000000e+00
1.30820860e-03  1.05921623e+01  8.01110000e-03  3.01500000e+03  5.05700000e-10  0.00000000e+00
1.32129070e-03  1.05922912e+01  8.01150000e-03  2.98530000e+03  5.44500000e-10  0.00000000e+00
1.33450360e-03  1.05924167e+01  8.01180000e-03  2.95590000e+03  5.86200000e-10  0.00000000e+00
1.34784860e-03  1.05925392e+01  8.01220000e-03  2.92670000e+03  6.31000000e-10  0.00000000e+00
1.36132710e-03  1.05926587e+01  8.01250000e-03  2.89790000e+03  6.79100000e-10  0.00000000e+00
1.37494030e-03  1.05927754e+01  8.01290000e-03  2.86930000e+03  7.30800000e-10  0.00000000e+00
1.38868970e-03  1.05928895e+01  8.01330000e-03  2.84110000e+03  7.86300000e-10  0.00000000e+00
1.40257660e-03  1.05930011e+01  8.01360000e-03  2.81310000e+03  8.46000000e-10  0.00000000e+00
1.41660240e-03  1.05931103e+01  8.01400000e-03  2.78530000e+03  9.10000000e-10  0.00000000e+00
1.43076840e-03  1.05932173e+01  8.01440000e-03  2.75790000e+03  9.78700000e-10  0.00000000e+00
1.44507600e-03  1.05933222e+01  8.01480000e-03  2.73070000e+03  1.05200000e-09  0.00000000e+00
1.45952680e-03  1.05934250e+01  8.01510000e-03  2.70380000e+03  1.13200000e-09  0.00000000e+00
1.47412200e-03  1.05935258e+01  8.01550000e-03  2.67720000e+03  1.21700000e-09  0.00000000e+00
1.48886320e-03  1.05936247e+01  8.01590000e-03  2.65080000e+03  1.30800000e-09  0.00000000e+00
1.50375190e-03  1.05937219e+01  8.01630000e-03  2.62470000e+03  1.40600000e-09  0.00000000e+00
1.51878940e-03  1.05938173e+01  8.01670000e-03  2.59880000e+03  1.51000000e-09  0.00000000e+00
1.53397720e-03  1.05939111e+01  8.01710000e-03  2.57320000e+03  1.62300000e-09  0.00000000e+00
1.54931700e-03  1.05940032e+01  8.01750000e-03  2.54790000e+03  1.74400000e-09  0.00000000e+00
1.56481020e-03  1.05940938e+01  8.01800000e-03  2.52280000e+03  1.87300000e-09  0.00000000e+00
1.58045820e-03  1.05941830e+01  8.01840000e-03  2.49790000e+03  2.01100000e-09  0.00000000e+00
1.59626280e-03  1.05942706e+01  8.01880000e-03  2.47330000e+03  2.16000000e-09  0.00000000e+00
1.61222540e-03  1.05943569e+01  8.01920000e-03  2.44900000e+03  2.31900000e-09  0.00000000e+00
1.62834770e-03  1.05944419e+01  8.01970000e-03  2.42490000e+03  2.49000000e-09  0.00000000e+00
1.64463110e-03  1.05945255e+01  8.02010000e-03  2.40100000e+03  2.67300000e-09  0.00000000e+00
1.66107740e-03  1.05946079e+01  8.02050000e-03  2.37730000e+03  2.86900000e-09  0.00000000e+00
1.67768820e-03  1.05946890e+01  8.02100000e-03  2.35390000e+03  3.07800000e-09  0.00000000e+00
1.69446500e-03  1.05947689e+01  8.02140000e-03  2.33070000e+03  3.30300000e-09  0.00000000e+00
1.71140970e-03  1.05948476e+01  8.02190000e-03  2.30780000e+03  3.54300000e-09  0.00000000e+00
1.72852380e-03  1.05949252e+01  8.02230000e-03  2.28510000e+03  3.80100000e-09  0.00000000e+00
1.74580900e-03  1.05950017e+01  8.02280000e-03  2.26260000e+03  4.07700000e-09  0.00000000e+00
1.76326710e-03  1.05950771e+01  8.02330000e-03  2.24030000e+03  4.37200000e-09  0.00000000e+00
1.78089970e-03  1.05951515e+01  8.02370000e-03  2.21830000e+03  4.68700000e-09  0.00000000e+00
1.79870870e-03  1.05952248e+01  8.02420000e-03  2.19640000e+03  5.02500000e-09  0.00000000e+00
1.81669580e-03  1.05952970e+01  8.02470000e-03  2.17480000e+03  5.38700000e-09  0.00000000e+00
1.83486270e-03  1.05953683e+01  8.02520000e-03  2.15340000e+03  5.77300000e-09  0.00000000e+00
1.85321130e-03  1.05954386e+01  8.02570000e-03  2.13220000e+03  6.18700000e-09  0.00000000e+00
1.87174340e-03  1.05955079e+01  8.02620000e-03  2.11120000e+03  6.62900000e-09  0.00000000e+00
1.89046080e-03  1.05955763e+01  8.02670000e-03  2.09050000e+03  7.10200000e-09  0.00000000e+00
1.90936540e-03  1.05956437e+01  8.02720000e-03  2.06990000e+03  7.60800000e-09  0.00000000e+00
1.92845900e-03  1.05957102e+01  8.02770000e-03  2.04950000e+03  8.14800000e-09  0.00000000e+00
1.94774360e-03  1.05957758e+01  8.02820000e-03  2.02940000e+03  8.72600000e-09  0.00000000e+00
1.96722100e-03  1.05958405e+01  8.02870000e-03  2.00940000e+03  9.34300000e-09  0.00000000e+00
1.98689320e-03  1.05959043e+01  8.02930000e-03  1.98970000e+03  1.00000000e-08  0.00000000e+00
2.00676210e-03  1.05959673e+01  8.02980000e-03  1.97010000e+03  1.07100000e-08  0.00000000e+00
2.02682970e-03  1.05960293e+01  8.03030000e-03  1.95070000e+03  1.14600000e-08  0.00000000e+00
2.04709800e-03  1.05960905e+01  8.03090000e-03  1.93150000e+03  1.22600000e-08  0.00000000e+00
2.06756900e-03  1.05961509e+01  8.03140000e-03  1.91250000e+03  1.31200000e-08  0.00000000e+00
2.08824460e-03  1.05962104e+01  8.03200000e-03  1.89370000e+03  1.40400000e-08  0.00000000e+00
2.10912710e-03  1.05962691e+01  8.03250000e-03  1.87510000e+03  1.50200000e-08  0.00000000e+00
2.13021830e-03  1.05963269e+01  8.03310000e-03  1.85670000e+03  1.60600000e-08  0.00000000e+00
2.15152050e-03  1.05963839e+01  8.03370000e-03  1.83840000e+03  1.71800000e-08  0.00000000e+00
2.17303570e-03  1.05964401e+01  8.03430000e-03  1.82040000e+03  1.83700000e-08  0.00000000e+00
2.19476600e-03  1.05964955e+01  8.03480000e-03  1.80250000e+03  1.96400000e-08  0.00000000e+00
2.21671360e-03  1.05965500e+01  8.03540000e-03  1.78470000e+03  2.09900000e-08  0.00000000e+00
2.23888080e-03  1.05966037e+01  8.03600000e-03  1.76720000e+03  2.24400000e-08  0.00000000e+00
2.26126950e-03  1.05966566e+01  8.03660000e-03  1.74980000e+03  2.39800000e-08  0.00000000e+00
2.28388220e-03  1.05967087e+01  8.03720000e-03  1.73260000e+03  2.56300000e-08  0.00000000e+00
2.30672100e-03  1.05967600e+01  8.03780000e-03  1.71560000e+03  2.73800000e-08  0.00000000e+00
2.32978820e-03  1.05968105e+01  8.03850000e-03  1.69880000e+03  2.92500000e-08  0.00000000e+00
2.35308610e-03  1.05968602e+01  8.03910000e-03  1.68210000e+03  3.12400000e-08  0.00000000e+00
2.37661690e-03  1.05969090e+01  8.03970000e-03  1.66560000e+03  3.33600000e-08  0.00000000e+00
2.40038310e-03  1.05969570e+01  8.04040000e-03  1.64920000e+03  3.56300000e-08  0.00000000e+00
2.42438690e-03  1.05970042e+01  8.04100000e-03  1.63300000e+03  3.80400000e-08  0.00000000e+00
2.44863070e-03  1.05970506e+01  8.04170000e-03  1.61700000e+03  4.06100000e-08  0.00000000e+00
2.47311700e-03  1.05970962e+01  8.04230000e-03  1.60110000e+03  4.33400000e-08  0.00000000e+00
2.49784810e-03  1.05971409e+01  8.04300000e-03  1.58540000e+03  4.62600000e-08  0.00000000e+00
2.52282660e-03  1.05971849e+01  8.04370000e-03  1.56980000e+03  4.93600000e-08  0.00000000e+00
2.54805480e-03  1.05972279e+01  8.04430000e-03  1.55440000e+03  5.26700000e-08  0.00000000e+00
2.57353540e-03  1.05972702e+01  8.04500000e-03  1.53910000e+03  5.61900000e-08  0.00000000e+00
2.59927070e-03  1.05973116e+01  8.04570000e-03  1.52400000e+03  5.99300000e-08  0.00000000e+00
2.62526340e-03  1.05973521e+01  8.04640000e-03  1.50910000e+03  6.39200000e-08  0.00000000e+00
2.65151600e-03  1.05973918e+01  8.04710000e-03  1.49420000e+03  6.81600000e-08  0.00000000e+00
2.67803110e-03  1.05974306e+01  8.04780000e-03  1.47960000e+03  7.26800000e-08  0.00000000e+00
2.70481140e-03  1.05974686e+01  8.04860000e-03  1.46510000e+03  7.74800000e-08  0.00000000e+00
2.73185950e-03  1.05975056e+01  8.04930000e-03  1.45070000e+03  8.25900000e-08  0.00000000e+00
2.75917810e-03  1.05975418e+01  8.05000000e-03  1.43650000e+03  8.80300000e-08  0.00000000e+00
2.78676980e-03  1.05975771e+01  8.05080000e-03  1.42240000e+03  9.38100000e-08  0.00000000e+00
2.81463750e-03  1.05976115e+01  8.05150000e-03  1.40840000e+03  9.99500000e-08  0.00000000e+00
2.84278380e-03  1.05976450e+01  8.05230000e-03  1.39460000e+03  1.06500000e-07  0.00000000e+00
2.87121160e-03  1.05976776e+01  8.05310000e-03  1.38090000e+03  1.13400000e-07  0.00000000e+00
2.89992370e-03  1.05977092e+01  8.05380000e-03  1.36740000e+03  1.20800000e-07  0.00000000e+00
2.92892290e-03  1.05977399e+01  8.05460000e-03  1.35400000e+03  1.28700000e-07  0.00000000e+00
2.95821210e-03  1.05977696e+01  8.05540000e-03  1.34070000e+03  1.37000000e-07  0.00000000e+00
2.98779420e-03  1.05977984e+01  8.05620000e-03  1.32760000e+03  1.45900000e-07  0.00000000e+00
3.01767220e-03  1.05978262e+01  8.05700000e-03  1.31460000e+03  1.55300000e-07  0.00000000e+00
3.04784880e-03  1.05978530e+01  8.05780000e-03  1.30170000e+03  1.65300000e-07  0.00000000e+00
3.07832730e-03  1.05978789e+01  8.05870000e-03  1.28890000e+03  1.75900000e-07  0.00000000e+00
3.10911050e-03  1.05979037e+01  8.05950000e-03  1.27630000e+03  1.87200000e-07  0.00000000e+00
3.14020160e-03  1.05979274e+01  8.06030000e-03  1.26380000e+03  1.99200000e-07  0.00000000e+00
3.17160360e-03  1.05979502e+01  8.06120000e-03  1.25140000e+03  2.11900000e-07  0.00000000e+00
3.20331960e-03  1.05979718e+01  8.06200000e-03  1.23910000e+03  2.25400000e-07  0.00000000e+00
3.23535280e-03  1.05979925e+01  8.06290000e-03  1.22700000e+03  2.39700000e-07  0.00000000e+00
3.26770630e-03  1.05980120e+01  8.06380000e-03  1.21500000e+03  2.54900000e-07  0.00000000e+00
3.30038330e-03  1.05980304e+01  8.06470000e-03  1.20310000e+03  2.71000000e-07  0.00000000e+00
3.33338710e-03  1.05980477e+01  8.06560000e-03  1.19130000e+03  2.88100000e-07  0.00000000e+00
3.36672100e-03  1.05980639e+01  8.06650000e-03  1.17960000e+03  3.06200000e-07  0.00000000e+00
3.40038810e-03  1.05980789e+01  8.06740000e-03  1.16810000e+03  3.25500000e-07  0.00000000e+00
3.43439200e-03  1.05980928e+01  8.06830000e-03  1.15670000e+03  3.45900000e-07  0.00000000e+00
3.46873590e-03  1.05981055e+01  8.06920000e-03  1.14530000e+03  3.67500000e-07  0.00000000e+00
3.50342320e-03  1.05981169e+01  8.07020000e-03  1.13410000e+03  3.90500000e-07  0.00000000e+00
3.53845740e-03  1.05981272e+01  8.07110000e-03  1.12300000e+03  4.14800000e-07  0.00000000e+00
3.57384190e-03  1.05981362e+01  8.07210000e-03  1.11210000e+03  4.40600000e-07  0.00000000e+00
3.60958030e-03  1.05981439e+01  8.07310000e-03  1.10120000e+03  4.67900000e-07  0.00000000e+00
3.64567610e-03  1.05981503e+01  8.07400000e-03  1.09040000e+03  4.96800000e-07  0.00000000e+00
3.68213280e-03  1.05981555e+01  8.07500000e-03  1.07970000e+03  5.27500000e-07  0.00000000e+00
3.71895410e-03  1.05981593e+01  8.07600000e-03  1.06920000e+03  5.60000000e-07  0.00000000e+00
3.75614360e-03  1.05981618e+01  8.07700000e-03  1.05870000e+03  5.94400000e-07  0.00000000e+00
3.79370500e-03  1.05981628e+01  8.07810000e-03  1.04840000e+03  6.30800000e-07  0.00000000e+00
3.83164200e-03  1.05981625e+01  8.07910000e-03  1.03810000e+03  6.69400000e-07  0.00000000e+00
3.86995840e-03  1.05981608e+01  8.08010000e-03  1.02800000e+03  7.10300000e-07  0.00000000e+00
3.90865800e-03  1.05981576e+01  8.08120000e-03  1.01790000e+03  7.53500000e-07  0.00000000e+00
3.94774450e-03  1.05981530e+01  8.08220000e-03  1.00800000e+03  7.99300000e-07  0.00000000e+00
3.98722190e-03  1.05981468e+01  8.08330000e-03  9.98150000e+02  8.47800000e-07  0.00000000e+00
4.02709410e-03  1.05981392e+01  8.08440000e-03  9.88400000e+02  8.99000000e-07  0.00000000e+00
4.06736500e-03  1.05981300e+01  8.08550000e-03  9.78750000e+02  9.53300000e-07  0.00000000e+00
4.10803860e-03  1.05981192e+01  8.08660000e-03  9.69190000e+02  1.01100000e-06  0.00000000e+00
4.14911890e-03  1.05981068e+01  8.08770000e-03  9.59730000e+02  1.07100000e-06  0.00000000e+00
4.19061010e-03  1.05980927e+01  8.08890000e-03  9.50360000e+02  1.13600000e-06  0.00000000e+00
4.23251620e-03  1.05980770e+01  8.09000000e-03  9.41080000e+02  1.20300000e-06  0.00000000e+00
4.27484130e-03  1.05980596e+01  8.09120000e-03  9.31900000e+02  1.27500000e-06  0.00000000e+00
4.31758960e-03  1.05980405e+01  8.09230000e-03  9.22800000e+02  1.35100000e-06  0.00000000e+00
4.36076550e-03  1.05980196e+01  8.09350000e-03  9.13800000e+02  1.43100000e-06  0.00000000e+00
4.40437310e-03  1.05979970e+01  8.09470000e-03  9.04880000e+02  1.51600000e-06  0.00000000e+00
4.44841680e-03  1.05979725e+01  8.09590000e-03  8.96060000e+02  1.60600000e-06  0.00000000e+00
4.49290090e-03  1.05979461e+01  8.09710000e-03  8.87320000e+02  1.70000000e-06  0.00000000e+00
4.53782990e-03  1.05979179e+01  8.09830000e-03  8.78670000e+02  1.80000000e-06  0.00000000e+00
4.58320820e-03  1.05978877e+01  8.09960000e-03  8.70100000e+02  1.90600000e-06  0.00000000e+00
4.62904020e-03  1.05978556e+01  8.10080000e-03  8.61620000e+02  2.01800000e-06  0.00000000e+00
4.67533060e-03  1.05978215e+01  8.10210000e-03  8.53220000e+02  2.13600000e-06  0.00000000e+00
4.72208380e-03  1.05977853e+01  8.10340000e-03  8.44910000e+02  2.26000000e-06  0.00000000e+00
4.76930460e-03  1.05977470e+01  8.10470000e-03  8.36680000e+02  2.39200000e-06  0.00000000e+00
4.81699760e-03  1.05977067e+01  8.10600000e-03  8.28530000e+02  2.53000000e-06  0.00000000e+00
4.86516750e-03  1.05976642e+01  8.10730000e-03  8.20460000e+02  2.67700000e-06  0.00000000e+00
4.91381920e-03  1.05976194e+01  8.10860000e-03  8.12470000e+02  2.83100000e-06  0.00000000e+00
4.96295730e-03  1.05975725e+01  8.11000000e-03  8.04560000e+02  2.99400000e-06  0.00000000e+00
5.01258680e-03  1.05975233e+01  8.11140000e-03  7.96720000e+02  3.16600000e-06  0.00000000e+00
5.06271270e-03  1.05974717e+01  8.11270000e-03  7.88970000e+02  3.34800000e-06  0.00000000e+00
5.11333970e-03  1.05974178e+01  8.11410000e-03  7.81290000e+02  3.53900000e-06  0.00000000e+00
5.16447310e-03  1.05973614e+01  8.11550000e-03  7.73690000e+02  3.74100000e-06  0.00000000e+00
5.21611780e-03  1.05973026e+01  8.11690000e-03  7.66160000e+02  3.95400000e-06  0.00000000e+00
5.26827890e-03  1.05972413e+01  8.11840000e-03  7.58710000e+02  4.17900000e-06  0.00000000e+00
5.32096160e-03  1.05971774e+01  8.11980000e-03  7.51330000e+02  4.41600000e-06  0.00000000e+00
5.37417120e-03  1.05971109e+01  8.12130000e-03  7.44030000e+02  4.66500000e-06  0.00000000e+00
5.42791290e-03  1.05970417e+01  8.12280000e-03  7.36800000e+02  4.92900000e-06  0.00000000e+00
5.48219190e-03  1.05969699e+01  8.12430000e-03  7.29640000e+02  5.20600000e-06  0.00000000e+00
5.53701380e-03  1.05968953e+01  8.12580000e-03  7.22550000e+02  5.49800000e-06  0.00000000e+00
5.59238390e-03  1.05968178e+01  8.12730000e-03  7.15530000e+02  5.80600000e-06  0.00000000e+00
5.64830770e-03  1.05967375e+01  8.12880000e-03  7.08580000e+02  6.13000000e-06  0.00000000e+00
5.70479070e-03  1.05966543e+01  8.13040000e-03  7.01700000e+02  6.47200000e-06  0.00000000e+00
5.76183850e-03  1.05965680e+01  8.13200000e-03  6.94880000e+02  6.83200000e-06  0.00000000e+00
5.81945690e-03  1.05964787e+01  8.13360000e-03  6.88140000e+02  7.21000000e-06  0.00000000e+00
5.87765140e-03  1.05963864e+01  8.13520000e-03  6.81460000e+02  7.60900000e-06  0.00000000e+00
5.93642780e-03  1.05962908e+01  8.13680000e-03  6.74850000e+02  8.02900000e-06  0.00000000e+00
5.99579210e-03  1.05961920e+01  8.13840000e-03  6.68300000e+02  8.47100000e-06  0.00000000e+00
6.05574990e-03  1.05960900e+01  8.14010000e-03  6.61820000e+02  8.93700000e-06  0.00000000e+00
6.11630740e-03  1.05959845e+01  8.14180000e-03  6.55400000e+02  9.42600000e-06  0.00000000e+00
6.17747040e-03  1.05958757e+01  8.14350000e-03  6.49050000e+02  9.94200000e-06  0.00000000e+00
6.23924500e-03  1.05957633e+01  8.14520000e-03  6.42750000e+02  1.04800000e-05  0.00000000e+00
6.30163740e-03  1.05956474e+01  8.14690000e-03  6.36530000e+02  1.10500000e-05  0.00000000e+00
6.36465370e-03  1.05955279e+01  8.14870000e-03  6.30360000e+02  1.16500000e-05  0.00000000e+00
6.42830020e-03  1.05954047e+01  8.15040000e-03  6.24250000e+02  1.22800000e-05  0.00000000e+00
6.49258320e-03  1.05952776e+01  8.15220000e-03  6.18210000e+02  1.29500000e-05  0.00000000e+00
6.55750890e-03  1.05951468e+01  8.15400000e-03  6.12220000e+02  1.36500000e-05  0.00000000e+00
6.62308400e-03  1.05950120e+01  8.15580000e-03  6.06300000e+02  1.43800000e-05  0.00000000e+00
6.68931470e-03  1.05948732e+01  8.15770000e-03  6.00430000e+02  1.51500000e-05  0.00000000e+00
6.75620780e-03  1.05947303e+01  8.15950000e-03  5.94620000e+02  1.59600000e-05  0.00000000e+00
6.82376980e-03  1.05945832e+01  8.16140000e-03  5.88870000e+02  1.68100000e-05  0.00000000e+00
6.89200750e-03  1.05944319e+01  8.16330000e-03  5.83170000e+02  1.77100000e-05  0.00000000e+00
6.96092750e-03  1.05942763e+01  8.16520000e-03  5.77530000e+02  1.86500000e-05  0.00000000e+00
7.03053670e-03  1.05941162e+01  8.16720000e-03  5.71950000e+02  1.96300000e-05  0.00000000e+00
7.10084200e-03  1.05939517e+01  8.16910000e-03  5.66430000e+02  2.06700000e-05  0.00000000e+00
7.17185030e-03  1.05937825e+01  8.17110000e-03  5.60950000e+02  2.17600000e-05  0.00000000e+00
7.24356880e-03  1.05936086e+01  8.17310000e-03  5.55540000e+02  2.29000000e-05  0.00000000e+00
