#  Y:    Z = 39;   Atomic weight = 88.90590 g/mol ;    nominal density:   [INLINE] = 4.4560E+00 g/cm3
#         a(barns/atom) = (cm2/g)    1.47632E+02
#         E(eV) (cm2/g) = f2(e/atom)    4.73313E+05
#         12 edges. Edge energies (keV):
# K      1.70384E+01  L I    2.37250E+00  L II   2.15550E+00  L III  2.08000E+00
# M I    3.93600E-01  M II   3.12400E-01  M III  3.00300E-01  M IV   1.59600E-01
# M V    1.57400E-01  N I    4.54000E-02  N II   2.56000E-02  N III  2.56000E-02
#         Relativistic correction estimate frel (H82,3/5CL) = -2.8657E-01, -1.8000E-01 e/atom
#         Nuclear Thomson correction fNT = -9.3851E-03 e/atom
#    _________________________________________________________________________________________________________
#  Form Factors, Attenuation and Scattering Cross-sections
#  Z=39, E = 0.001 - 1000 keV
#                                                             Attenuation
#    E         f1            f2                     [INLINE] (coh+inc) Coefficient    K       wavelength
#    keV       e/atom       e/atom      cm2/g       cm2/g      cm2/g          cm2/g        nm
1.01000000e-03  9.47921267e+00  7.54620000e-03  3.53630000e+03  5.43000000e-11  0.00000000e+00
1.02010000e-03  9.48071965e+00  7.54650000e-03  3.50150000e+03  5.85800000e-11  0.00000000e+00
1.03030100e-03  9.48148948e+00  7.54690000e-03  3.46700000e+03  6.31900000e-11  0.00000000e+00
1.04060400e-03  9.48208274e+00  7.54720000e-03  3.43280000e+03  6.81600000e-11  0.00000000e+00
1.05101010e-03  9.48265487e+00  7.54750000e-03  3.39900000e+03  7.35100000e-11  0.00000000e+00
1.06152010e-03  9.48303305e+00  7.54790000e-03  3.36550000e+03  7.92800000e-11  0.00000000e+00
1.07213530e-03  9.48343076e+00  7.54820000e-03  3.33230000e+03  8.54900000e-11  0.00000000e+00
1.08285670e-03  9.48370730e+00  7.54860000e-03  3.29950000e+03  9.21900000e-11  0.00000000e+00
1.09368520e-03  9.48395685e+00  7.54890000e-03  3.26690000e+03  9.94000000e-11  0.00000000e+00
1.10462210e-03  9.48418363e+00  7.54930000e-03  3.23480000e+03  1.07200000e-10  0.00000000e+00
1.11566830e-03  9.48439090e+00  7.54970000e-03  3.20290000e+03  1.15500000e-10  0.00000000e+00
1.12682500e-03  9.48458127e+00  7.55000000e-03  3.17130000e+03  1.24500000e-10  0.00000000e+00
1.13809320e-03  9.48475680e+00  7.55040000e-03  3.14010000e+03  1.34200000e-10  0.00000000e+00
1.14947410e-03  9.48491920e+00  7.55080000e-03  3.10910000e+03  1.44700000e-10  0.00000000e+00
1.16096880e-03  9.48506985e+00  7.55110000e-03  3.07850000e+03  1.55900000e-10  0.00000000e+00
1.17257850e-03  9.48520993e+00  7.55150000e-03  3.04820000e+03  1.68000000e-10  0.00000000e+00
1.18430430e-03  9.48534040e+00  7.55190000e-03  3.01820000e+03  1.81100000e-10  0.00000000e+00
1.19614730e-03  9.48546210e+00  7.55230000e-03  2.98840000e+03  1.95100000e-10  0.00000000e+00
1.20810880e-03  9.48557574e+00  7.55270000e-03  2.95900000e+03  2.10200000e-10  0.00000000e+00
1.22018990e-03  9.48568192e+00  7.55310000e-03  2.92990000e+03  2.26400000e-10  0.00000000e+00
1.23239180e-03  9.48578117e+00  7.55350000e-03  2.90100000e+03  2.43900000e-10  0.00000000e+00
1.24471570e-03  9.48587394e+00  7.55390000e-03  2.87240000e+03  2.62600000e-10  0.00000000e+00
1.25716280e-03  9.48596064e+00  7.55430000e-03  2.84410000e+03  2.82800000e-10  0.00000000e+00
1.26973440e-03  9.48604160e+00  7.55470000e-03  2.81610000e+03  3.04600000e-10  0.00000000e+00
1.28243180e-03  9.48611714e+00  7.55510000e-03  2.78840000e+03  3.27900000e-10  0.00000000e+00
1.29525610e-03  9.48618752e+00  7.55560000e-03  2.76100000e+03  3.53000000e-10  0.00000000e+00
1.30820860e-03  9.48625299e+00  7.55600000e-03  2.73380000e+03  3.80000000e-10  0.00000000e+00
1.32129070e-03  9.48631375e+00  7.55640000e-03  2.70690000e+03  4.09000000e-10  0.00000000e+00
1.33450360e-03  9.48637000e+00  7.55690000e-03  2.68020000e+03  4.40200000e-10  0.00000000e+00
1.34784860e-03  9.48642189e+00  7.55730000e-03  2.65380000e+03  4.73700000e-10  0.00000000e+00
1.36132710e-03  9.48646959e+00  7.55770000e-03  2.62770000e+03  5.09700000e-10  0.00000000e+00
1.37494030e-03  9.48651321e+00  7.55820000e-03  2.60190000e+03  5.48400000e-10  0.00000000e+00
1.38868970e-03  9.48655287e+00  7.55860000e-03  2.57620000e+03  5.90000000e-10  0.00000000e+00
1.40257660e-03  9.48658869e+00  7.55910000e-03  2.55090000e+03  6.34600000e-10  0.00000000e+00
1.41660240e-03  9.48662075e+00  7.55960000e-03  2.52580000e+03  6.82600000e-10  0.00000000e+00
1.43076840e-03  9.48664913e+00  7.56000000e-03  2.50090000e+03  7.34100000e-10  0.00000000e+00
1.44507600e-03  9.48667391e+00  7.56050000e-03  2.47630000e+03  7.89400000e-10  0.00000000e+00
1.45952680e-03  9.48669514e+00  7.56100000e-03  2.45200000e+03  8.48700000e-10  0.00000000e+00
1.47412200e-03  9.48671290e+00  7.56150000e-03  2.42780000e+03  9.12400000e-10  0.00000000e+00
1.48886320e-03  9.48672722e+00  7.56200000e-03  2.40400000e+03  9.80800000e-10  0.00000000e+00
1.50375190e-03  9.48673814e+00  7.56240000e-03  2.38030000e+03  1.05400000e-09  0.00000000e+00
1.51878940e-03  9.48674571e+00  7.56290000e-03  2.35690000e+03  1.13300000e-09  0.00000000e+00
1.53397720e-03  9.48674995e+00  7.56340000e-03  2.33370000e+03  1.21700000e-09  0.00000000e+00
1.54931700e-03  9.48675089e+00  7.56400000e-03  2.31080000e+03  1.30800000e-09  0.00000000e+00
1.56481020e-03  9.48674854e+00  7.56450000e-03  2.28800000e+03  1.40500000e-09  0.00000000e+00
1.58045820e-03  9.48674293e+00  7.56500000e-03  2.26560000e+03  1.50900000e-09  0.00000000e+00
1.59626280e-03  9.48673406e+00  7.56550000e-03  2.24330000e+03  1.62100000e-09  0.00000000e+00
1.61222540e-03  9.48672195e+00  7.56600000e-03  2.22120000e+03  1.74100000e-09  0.00000000e+00
1.62834770e-03  9.48670659e+00  7.56660000e-03  2.19940000e+03  1.87000000e-09  0.00000000e+00
1.64463110e-03  9.48668799e+00  7.56710000e-03  2.17780000e+03  2.00700000e-09  0.00000000e+00
1.66107740e-03  9.48666614e+00  7.56770000e-03  2.15640000e+03  2.15500000e-09  0.00000000e+00
1.67768820e-03  9.48664104e+00  7.56820000e-03  2.13520000e+03  2.31300000e-09  0.00000000e+00
1.69446500e-03  9.48661267e+00  7.56880000e-03  2.11420000e+03  2.48300000e-09  0.00000000e+00
1.71140970e-03  9.48658103e+00  7.56930000e-03  2.09340000e+03  2.66400000e-09  0.00000000e+00
1.72852380e-03  9.48654610e+00  7.56990000e-03  2.07280000e+03  2.85900000e-09  0.00000000e+00
1.74580900e-03  9.48650785e+00  7.57050000e-03  2.05250000e+03  3.06700000e-09  0.00000000e+00
1.76326710e-03  9.48646628e+00  7.57110000e-03  2.03230000e+03  3.29000000e-09  0.00000000e+00
1.78089970e-03  9.48642135e+00  7.57170000e-03  2.01230000e+03  3.52900000e-09  0.00000000e+00
1.79870870e-03  9.48637305e+00  7.57220000e-03  1.99260000e+03  3.78500000e-09  0.00000000e+00
1.81669580e-03  9.48632134e+00  7.57280000e-03  1.97300000e+03  4.05800000e-09  0.00000000e+00
1.83486270e-03  9.48626619e+00  7.57350000e-03  1.95360000e+03  4.35200000e-09  0.00000000e+00
1.85321130e-03  9.48620757e+00  7.57410000e-03  1.93440000e+03  4.66500000e-09  0.00000000e+00
1.87174340e-03  9.48614544e+00  7.57470000e-03  1.91540000e+03  5.00100000e-09  0.00000000e+00
1.89046080e-03  9.48607977e+00  7.57530000e-03  1.89660000e+03  5.36000000e-09  0.00000000e+00
1.90936540e-03  9.48601053e+00  7.57590000e-03  1.87800000e+03  5.74400000e-09  0.00000000e+00
1.92845900e-03  9.48593765e+00  7.57660000e-03  1.85960000e+03  6.15500000e-09  0.00000000e+00
1.94774360e-03  9.48586112e+00  7.57720000e-03  1.84130000e+03  6.59400000e-09  0.00000000e+00
1.96722100e-03  9.48578087e+00  7.57790000e-03  1.82320000e+03  7.06400000e-09  0.00000000e+00
1.98689320e-03  9.48569686e+00  7.57850000e-03  1.80530000e+03  7.56700000e-09  0.00000000e+00
2.00676210e-03  9.48560904e+00  7.57920000e-03  1.78760000e+03  8.10400000e-09  0.00000000e+00
2.02682970e-03  9.48551736e+00  7.57990000e-03  1.77010000e+03  8.67800000e-09  0.00000000e+00
2.04709800e-03  9.48542176e+00  7.58050000e-03  1.75270000e+03  9.29100000e-09  0.00000000e+00
2.06756900e-03  9.48532220e+00  7.58120000e-03  1.73550000e+03  9.94700000e-09  0.00000000e+00
2.08824460e-03  9.48521861e+00  7.58190000e-03  1.71850000e+03  1.06500000e-08  0.00000000e+00
2.10912710e-03  9.48511092e+00  7.58260000e-03  1.70160000e+03  1.14000000e-08  0.00000000e+00
2.13021830e-03  9.48499909e+00  7.58330000e-03  1.68490000e+03  1.22000000e-08  0.00000000e+00
2.15152050e-03  9.48488304e+00  7.58410000e-03  1.66840000e+03  1.30500000e-08  0.00000000e+00
2.17303570e-03  9.48476272e+00  7.58480000e-03  1.65210000e+03  1.39600000e-08  0.00000000e+00
2.19476600e-03  9.48463804e+00  7.58550000e-03  1.63590000e+03  1.49400000e-08  0.00000000e+00
2.21671360e-03  9.48450895e+00  7.58620000e-03  1.61980000e+03  1.59700000e-08  0.00000000e+00
2.23888080e-03  9.48437536e+00  7.58700000e-03  1.60390000e+03  1.70800000e-08  0.00000000e+00
2.26126950e-03  9.48423721e+00  7.58770000e-03  1.58820000e+03  1.82700000e-08  0.00000000e+00
2.28388220e-03  9.48409441e+00  7.58850000e-03  1.57260000e+03  1.95300000e-08  0.00000000e+00
2.30672100e-03  9.48394690e+00  7.58930000e-03  1.55720000e+03  2.08800000e-08  0.00000000e+00
2.32978820e-03  9.48379458e+00  7.59010000e-03  1.54200000e+03  2.23200000e-08  0.00000000e+00
2.35308610e-03  9.48363738e+00  7.59080000e-03  1.52690000e+03  2.38600000e-08  0.00000000e+00
2.37661690e-03  9.48347521e+00  7.59160000e-03  1.51190000e+03  2.54900000e-08  0.00000000e+00
2.40038310e-03  9.48330798e+00  7.59240000e-03  1.49710000e+03  2.72400000e-08  0.00000000e+00
2.42438690e-03  9.48313561e+00  7.59330000e-03  1.48240000e+03  2.91000000e-08  0.00000000e+00
2.44863070e-03  9.48295799e+00  7.59410000e-03  1.46790000e+03  3.10900000e-08  0.00000000e+00
2.47311700e-03  9.48277504e+00  7.59490000e-03  1.45350000e+03  3.32000000e-08  0.00000000e+00
2.49784810e-03  9.48258666e+00  7.59570000e-03  1.43930000e+03  3.54600000e-08  0.00000000e+00
2.52282660e-03  9.48239275e+00  7.59660000e-03  1.42520000e+03  3.78600000e-08  0.00000000e+00
2.54805480e-03  9.48219320e+00  7.59740000e-03  1.41130000e+03  4.04200000e-08  0.00000000e+00
2.57353540e-03  9.48198792e+00  7.59830000e-03  1.39740000e+03  4.31500000e-08  0.00000000e+00
2.59927070e-03  9.48177679e+00  7.59920000e-03  1.38380000e+03  4.60600000e-08  0.00000000e+00
2.62526340e-03  9.48155971e+00  7.60010000e-03  1.37020000e+03  4.91600000e-08  0.00000000e+00
2.65151600e-03  9.48133656e+00  7.60100000e-03  1.35680000e+03  5.24500000e-08  0.00000000e+00
2.67803110e-03  9.48110723e+00  7.60190000e-03  1.34350000e+03  5.59700000e-08  0.00000000e+00
2.70481140e-03  9.48087161e+00  7.60280000e-03  1.33040000e+03  5.97100000e-08  0.00000000e+00
2.73185950e-03  9.48062956e+00  7.60370000e-03  1.31740000e+03  6.36900000e-08  0.00000000e+00
2.75917810e-03  9.48038098e+00  7.60460000e-03  1.30450000e+03  6.79200000e-08  0.00000000e+00
2.78676980e-03  9.48012572e+00  7.60560000e-03  1.29180000e+03  7.24300000e-08  0.00000000e+00
2.81463750e-03  9.47986367e+00  7.60650000e-03  1.27910000e+03  7.72300000e-08  0.00000000e+00
2.84278380e-03  9.47959469e+00  7.60750000e-03  1.26660000e+03  8.23400000e-08  0.00000000e+00
2.87121160e-03  9.47931864e+00  7.60850000e-03  1.25420000e+03  8.77700000e-08  0.00000000e+00
2.89992370e-03  9.47903539e+00  7.60940000e-03  1.24200000e+03  9.35500000e-08  0.00000000e+00
2.92892290e-03  9.47874479e+00  7.61040000e-03  1.22980000e+03  9.97000000e-08  0.00000000e+00
2.95821210e-03  9.47844671e+00  7.61140000e-03  1.21780000e+03  1.06200000e-07  0.00000000e+00
2.98779420e-03  9.47814099e+00  7.61240000e-03  1.20590000e+03  1.13200000e-07  0.00000000e+00
3.01767220e-03  9.47782747e+00  7.61350000e-03  1.19410000e+03  1.20600000e-07  0.00000000e+00
3.04784880e-03  9.47750602e+00  7.61450000e-03  1.18250000e+03  1.28400000e-07  0.00000000e+00
3.07832730e-03  9.47717646e+00  7.61560000e-03  1.17090000e+03  1.36800000e-07  0.00000000e+00
3.10911050e-03  9.47683864e+00  7.61660000e-03  1.15950000e+03  1.45600000e-07  0.00000000e+00
3.14020160e-03  9.47649238e+00  7.61770000e-03  1.14820000e+03  1.55100000e-07  0.00000000e+00
3.17160360e-03  9.47613753e+00  7.61880000e-03  1.13700000e+03  1.65100000e-07  0.00000000e+00
3.20331960e-03  9.47577390e+00  7.61990000e-03  1.12590000e+03  1.75700000e-07  0.00000000e+00
3.23535280e-03  9.47540132e+00  7.62100000e-03  1.11490000e+03  1.87000000e-07  0.00000000e+00
3.26770630e-03  9.47501961e+00  7.62210000e-03  1.10400000e+03  1.99000000e-07  0.00000000e+00
3.30038330e-03  9.47462858e+00  7.62320000e-03  1.09330000e+03  2.11800000e-07  0.00000000e+00
3.33338710e-03  9.47422805e+00  7.62430000e-03  1.08260000e+03  2.25300000e-07  0.00000000e+00
3.36672100e-03  9.47381781e+00  7.62550000e-03  1.07200000e+03  2.39600000e-07  0.00000000e+00
3.40038810e-03  9.47339767e+00  7.62670000e-03  1.06160000e+03  2.54900000e-07  0.00000000e+00
3.43439200e-03  9.47296742e+00  7.62780000e-03  1.05120000e+03  2.71100000e-07  0.00000000e+00
3.46873590e-03  9.47252687e+00  7.62900000e-03  1.04100000e+03  2.88200000e-07  0.00000000e+00
3.50342320e-03  9.47207579e+00  7.63020000e-03  1.03080000e+03  3.06400000e-07  0.00000000e+00
3.53845740e-03  9.47161398e+00  7.63150000e-03  1.02080000e+03  3.25800000e-07  0.00000000e+00
3.57384190e-03  9.47114120e+00  7.63270000e-03  1.01090000e+03  3.46300000e-07  0.00000000e+00
3.60958030e-03  9.47065723e+00  7.63390000e-03  1.00100000e+03  3.68000000e-07  0.00000000e+00
3.64567610e-03  9.47016185e+00  7.63520000e-03  9.91270000e+02  3.91000000e-07  0.00000000e+00
3.68213280e-03  9.46965480e+00  7.63650000e-03  9.81610000e+02  4.15500000e-07  0.00000000e+00
3.71895410e-03  9.46913585e+00  7.63770000e-03  9.72060000e+02  4.41400000e-07  0.00000000e+00
3.75614360e-03  9.46860475e+00  7.63900000e-03  9.62600000e+02  4.68800000e-07  0.00000000e+00
3.79370500e-03  9.46806125e+00  7.64040000e-03  9.53230000e+02  4.98000000e-07  0.00000000e+00
3.83164200e-03  9.46750509e+00  7.64170000e-03  9.43960000e+02  5.28800000e-07  0.00000000e+00
3.86995840e-03  9.46693599e+00  7.64300000e-03  9.34780000e+02  5.61500000e-07  0.00000000e+00
3.90865800e-03  9.46635370e+00  7.64440000e-03  9.25680000e+02  5.96100000e-07  0.00000000e+00
3.94774450e-03  9.46575792e+00  7.64580000e-03  9.16680000e+02  6.32800000e-07  0.00000000e+00
3.98722190e-03  9.46514838e+00  7.64710000e-03  9.07770000e+02  6.71600000e-07  0.00000000e+00
4.02709410e-03  9.46452479e+00  7.64850000e-03  8.98950000e+02  7.12700000e-07  0.00000000e+00
4.06736500e-03  9.46388685e+00  7.65000000e-03  8.90210000e+02  7.56300000e-07  0.00000000e+00
4.10803860e-03  9.46323424e+00  7.65140000e-03  8.81570000e+02  8.02400000e-07  0.00000000e+00
4.14911890e-03  9.46256668e+00  7.65280000e-03  8.73000000e+02  8.51200000e-07  0.00000000e+00
4.19061010e-03  9.46188382e+00  7.65430000e-03  8.64520000e+02  9.02900000e-07  0.00000000e+00
4.23251620e-03  9.46118535e+00  7.65580000e-03  8.56130000e+02  9.57600000e-07  0.00000000e+00
4.27484130e-03  9.46047094e+00  7.65730000e-03  8.47820000e+02  1.01500000e-06  0.00000000e+00
4.31758960e-03  9.45974023e+00  7.65880000e-03  8.39590000e+02  1.07700000e-06  0.00000000e+00
4.36076550e-03  9.45899289e+00  7.66030000e-03  8.31440000e+02  1.14100000e-06  0.00000000e+00
4.40437310e-03  9.45822855e+00  7.66190000e-03  8.23380000e+02  1.21000000e-06  0.00000000e+00
4.44841680e-03  9.45744686e+00  7.66340000e-03  8.15390000e+02  1.28200000e-06  0.00000000e+00
4.49290090e-03  9.45664743e+00  7.66500000e-03  8.07490000e+02  1.35900000e-06  0.00000000e+00
4.53782990e-03  9.45582988e+00  7.66660000e-03  7.99660000e+02  1.44000000e-06  0.00000000e+00
4.58320820e-03  9.45499381e+00  7.66820000e-03  7.91910000e+02  1.52600000e-06  0.00000000e+00
4.62904020e-03  9.45413884e+00  7.66990000e-03  7.84240000e+02  1.61600000e-06  0.00000000e+00
4.67533060e-03  9.45326454e+00  7.67150000e-03  7.76640000e+02  1.71200000e-06  0.00000000e+00
4.72208380e-03  9.45237050e+00  7.67320000e-03  7.69120000e+02  1.81300000e-06  0.00000000e+00
4.76930460e-03  9.45145628e+00  7.67490000e-03  7.61670000e+02  1.92000000e-06  0.00000000e+00
4.81699760e-03  9.45052145e+00  7.67660000e-03  7.54300000e+02  2.03300000e-06  0.00000000e+00
4.86516750e-03  9.44956555e+00  7.67830000e-03  7.47000000e+02  2.15200000e-06  0.00000000e+00
4.91381920e-03  9.44858812e+00  7.68010000e-03  7.39770000e+02  2.27800000e-06  0.00000000e+00
4.96295730e-03  9.44758868e+00  7.68190000e-03  7.32610000e+02  2.41100000e-06  0.00000000e+00
5.01258680e-03  9.44656675e+00  7.68370000e-03  7.25530000e+02  2.55100000e-06  0.00000000e+00
5.06271270e-03  9.44552184e+00  7.68550000e-03  7.18510000e+02  2.69900000e-06  0.00000000e+00
5.11333970e-03  9.44445343e+00  7.68730000e-03  7.11570000e+02  2.85600000e-06  0.00000000e+00
5.16447310e-03  9.44336100e+00  7.68920000e-03  7.04690000e+02  3.02100000e-06  0.00000000e+00
5.21611780e-03  9.44224402e+00  7.69100000e-03  6.97890000e+02  3.19500000e-06  0.00000000e+00
5.26827890e-03  9.44110195e+00  7.69290000e-03  6.91150000e+02  3.37900000e-06  0.00000000e+00
5.32096160e-03  9.43993421e+00  7.69480000e-03  6.84480000e+02  3.57300000e-06  0.00000000e+00
5.37417120e-03  9.43874024e+00  7.69680000e-03  6.77870000e+02  3.77800000e-06  0.00000000e+00
5.42791290e-03  9.43751945e+00  7.69870000e-03  6.71330000e+02  3.99400000e-06  0.00000000e+00
5.48219190e-03  9.43627123e+00  7.70070000e-03  6.64850000e+02  4.22100000e-06  0.00000000e+00
5.53701380e-03  9.43499496e+00  7.70270000e-03  6.58440000e+02  4.46200000e-06  0.00000000e+00
5.59238390e-03  9.43369002e+00  7.70470000e-03  6.52090000e+02  4.71500000e-06  0.00000000e+00
5.64830770e-03  9.43235574e+00  7.70680000e-03  6.45810000e+02  4.98200000e-06  0.00000000e+00
5.70479070e-03  9.43099147e+00  7.70890000e-03  6.39590000e+02  5.26300000e-06  0.00000000e+00
5.76183850e-03  9.42959652e+00  7.71100000e-03  6.33430000e+02  5.56000000e-06  0.00000000e+00
5.81945690e-03  9.42817019e+00  7.71310000e-03  6.27330000e+02  5.87200000e-06  0.00000000e+00
5.87765140e-03  9.42671176e+00  7.71520000e-03  6.21290000e+02  6.20200000e-06  0.00000000e+00
5.93642780e-03  9.42522049e+00  7.71740000e-03  6.15310000e+02  6.54900000e-06  0.00000000e+00
5.99579210e-03  9.42369563e+00  7.71960000e-03  6.09390000e+02  6.91400000e-06  0.00000000e+00
6.05574990e-03  9.42213640e+00  7.72180000e-03  6.03530000e+02  7.29900000e-06  0.00000000e+00
6.11630740e-03  9.42054200e+00  7.72410000e-03  5.97730000e+02  7.70500000e-06  0.00000000e+00
6.17747040e-03  9.41891162e+00  7.72640000e-03  5.91990000e+02  8.13200000e-06  0.00000000e+00
6.23924500e-03  9.41724442e+00  7.72870000e-03  5.86300000e+02  8.58100000e-06  0.00000000e+00
6.30163740e-03  9.41553954e+00  7.73100000e-03  5.80670000e+02  9.05400000e-06  0.00000000e+00
6.36465370e-03  9.41379609e+00  7.73340000e-03  5.75100000e+02  9.55300000e-06  0.00000000e+00
6.42830020e-03  9.41201317e+00  7.73570000e-03  5.69580000e+02  1.00800000e-05  0.00000000e+00
6.49258320e-03  9.41018985e+00  7.73820000e-03  5.64120000e+02  1.06300000e-05  0.00000000e+00
6.55750890e-03  9.40832517e+00  7.74060000e-03  5.58710000e+02  1.12100000e-05  0.00000000e+00
6.62308400e-03  9.40641814e+00  7.74310000e-03  5.53350000e+02  1.18200000e-05  0.00000000e+00
6.68931470e-03  9.40446777e+00  7.74560000e-03  5.48050000e+02  1.24600000e-05  0.00000000e+00
6.75620780e-03  9.40247300e+00  7.74810000e-03  5.42800000e+02  1.31400000e-05  0.00000000e+00
6.82376980e-03  9.40043278e+00  7.75070000e-03  5.37600000e+02  1.38500000e-05  0.00000000e+00
6.89200750e-03  9.39834602e+00  7.75320000e-03  5.32460000e+02  1.46000000e-05  0.00000000e+00
6.96092750e-03  9.39621158e+00  7.75590000e-03  5.27370000e+02  1.53800000e-05  0.00000000e+00
7.03053670e-03  9.39402831e+00  7.75850000e-03  5.22320000e+02  1.62100000e-05  0.00000000e+00
7.10084200e-03  9.39179503e+00  7.76120000e-03  5.17330000e+02  1.70800000e-05  0.00000000e+00
7.17185030e-03  9.38951050e+00  7.76390000e-03  5.12390000e+02  1.79900000e-05  0.00000000e+00
