#  Nb:    Z = 41;   Atomic weight = 92.90640 g/mol ;    nominal density:   [INLINE] = 8.5500E+00 g/cm3
#         a(barns/atom) = (cm2/g)    1.54275E+02
#         E(eV) (cm2/g) = f2(e/atom)    4.52932E+05
#         13 edges. Edge energies (keV):
# K      1.89856E+01  L I    2.69770E+00  L II   2.46470E+00  L III  2.37050E+00
# M I    4.68400E-01  M II   3.78400E-01  M III  3.63000E-01  M IV   2.07400E-01
# M V    2.04600E-01  N I    5.81000E-02  N II   3.39000E-02  N III  3.39000E-02
# N IV   3.20000E-03
#         Relativistic correction estimate frel (H82,3/5CL) = -3.2408E-01, -2.0280E-01 e/atom
#         Nuclear Thomson correction fNT = -9.9257E-03 e/atom
#    _________________________________________________________________________________________________________
#  Form Factors, Attenuation and Scattering Cross-sections
#  Z=41, E = 0.001 - 1000 keV
#                                                             Attenuation
#    E         f1            f2                     [INLINE] (coh+inc) Coefficient    K       wavelength
#    keV       e/atom       e/atom      cm2/g       cm2/g      cm2/g          cm2/g        nm
1.01000000e-03  7.48387289e+00  4.09510000e-02  1.83650000e+04  8.93900000e-11  0.00000000e+00
1.02010000e-03  7.49089543e+00  4.09630000e-02  1.81880000e+04  9.65400000e-11  0.00000000e+00
1.03030100e-03  7.49459143e+00  4.09750000e-02  1.80130000e+04  1.04200000e-10  0.00000000e+00
1.04060400e-03  7.49695487e+00  4.09870000e-02  1.78400000e+04  1.12500000e-10  0.00000000e+00
1.05101010e-03  7.49827548e+00  4.09990000e-02  1.76690000e+04  1.21500000e-10  0.00000000e+00
1.06152010e-03  7.49915721e+00  4.10120000e-02  1.74990000e+04  1.31100000e-10  0.00000000e+00
1.07213530e-03  7.49955412e+00  4.10240000e-02  1.73310000e+04  1.41500000e-10  0.00000000e+00
1.08285670e-03  7.49966726e+00  4.10370000e-02  1.71650000e+04  1.52700000e-10  0.00000000e+00
1.09368520e-03  7.49955221e+00  4.10500000e-02  1.70000000e+04  1.64700000e-10  0.00000000e+00
1.10462210e-03  7.49924875e+00  4.10620000e-02  1.68370000e+04  1.77700000e-10  0.00000000e+00
1.11566830e-03  7.49878055e+00  4.10750000e-02  1.66760000e+04  1.91700000e-10  0.00000000e+00
1.12682500e-03  7.49816926e+00  4.10890000e-02  1.65160000e+04  2.06700000e-10  0.00000000e+00
1.13809320e-03  7.49742987e+00  4.11020000e-02  1.63580000e+04  2.22900000e-10  0.00000000e+00
1.14947410e-03  7.49657384e+00  4.11160000e-02  1.62010000e+04  2.40300000e-10  0.00000000e+00
1.16096880e-03  7.49561010e+00  4.11290000e-02  1.60460000e+04  2.59100000e-10  0.00000000e+00
1.17257850e-03  7.49454562e+00  4.11430000e-02  1.58920000e+04  2.79200000e-10  0.00000000e+00
1.18430430e-03  7.49338592e+00  4.11570000e-02  1.57400000e+04  3.00900000e-10  0.00000000e+00
1.19614730e-03  7.49213537e+00  4.11710000e-02  1.55900000e+04  3.24200000e-10  0.00000000e+00
1.20810880e-03  7.49079740e+00  4.11860000e-02  1.54410000e+04  3.49300000e-10  0.00000000e+00
1.22018990e-03  7.48937474e+00  4.12000000e-02  1.52940000e+04  3.76300000e-10  0.00000000e+00
1.23239180e-03  7.48786947e+00  4.12150000e-02  1.51480000e+04  4.05300000e-10  0.00000000e+00
1.24471570e-03  7.48628320e+00  4.12300000e-02  1.50030000e+04  4.36500000e-10  0.00000000e+00
1.25716280e-03  7.48461711e+00  4.12450000e-02  1.48600000e+04  4.70100000e-10  0.00000000e+00
1.26973440e-03  7.48287200e+00  4.12610000e-02  1.47180000e+04  5.06100000e-10  0.00000000e+00
1.28243180e-03  7.48104838e+00  4.12760000e-02  1.45780000e+04  5.44800000e-10  0.00000000e+00
1.29525610e-03  7.47914648e+00  4.12920000e-02  1.44390000e+04  5.86400000e-10  0.00000000e+00
1.30820860e-03  7.47716628e+00  4.13080000e-02  1.43020000e+04  6.31100000e-10  0.00000000e+00
1.32129070e-03  7.47510756e+00  4.13240000e-02  1.41660000e+04  6.79100000e-10  0.00000000e+00
1.33450360e-03  7.47296989e+00  4.13400000e-02  1.40310000e+04  7.30700000e-10  0.00000000e+00
1.34784860e-03  7.47075268e+00  4.13570000e-02  1.38970000e+04  7.86000000e-10  0.00000000e+00
1.36132710e-03  7.46845515e+00  4.13730000e-02  1.37650000e+04  8.45500000e-10  0.00000000e+00
1.37494030e-03  7.46607640e+00  4.13900000e-02  1.36350000e+04  9.09300000e-10  0.00000000e+00
1.38868970e-03  7.46361535e+00  4.14070000e-02  1.35050000e+04  9.77700000e-10  0.00000000e+00
1.40257660e-03  7.46107081e+00  4.14250000e-02  1.33770000e+04  1.05100000e-09  0.00000000e+00
1.41660240e-03  7.45844143e+00  4.14420000e-02  1.32500000e+04  1.13000000e-09  0.00000000e+00
1.43076840e-03  7.45572577e+00  4.14600000e-02  1.31250000e+04  1.21500000e-09  0.00000000e+00
1.44507600e-03  7.45292222e+00  4.14780000e-02  1.30010000e+04  1.30600000e-09  0.00000000e+00
1.45952680e-03  7.45002908e+00  4.14970000e-02  1.28780000e+04  1.40300000e-09  0.00000000e+00
1.47412200e-03  7.44704452e+00  4.15150000e-02  1.27560000e+04  1.50700000e-09  0.00000000e+00
1.48886320e-03  7.44396656e+00  4.15340000e-02  1.26350000e+04  1.61900000e-09  0.00000000e+00
1.50375190e-03  7.44079313e+00  4.15530000e-02  1.25160000e+04  1.73900000e-09  0.00000000e+00
1.51878940e-03  7.43752203e+00  4.15730000e-02  1.23980000e+04  1.86800000e-09  0.00000000e+00
1.53397720e-03  7.43415090e+00  4.15920000e-02  1.22810000e+04  2.00600000e-09  0.00000000e+00
1.54931700e-03  7.43067730e+00  4.16120000e-02  1.21650000e+04  2.15400000e-09  0.00000000e+00
1.56481020e-03  7.42709862e+00  4.16320000e-02  1.20500000e+04  2.31200000e-09  0.00000000e+00
1.58045820e-03  7.42341213e+00  4.16530000e-02  1.19370000e+04  2.48200000e-09  0.00000000e+00
1.59626280e-03  7.41961494e+00  4.16740000e-02  1.18250000e+04  2.66400000e-09  0.00000000e+00
1.61222540e-03  7.41570404e+00  4.16950000e-02  1.17140000e+04  2.85800000e-09  0.00000000e+00
1.62834770e-03  7.41167625e+00  4.17160000e-02  1.16040000e+04  3.06700000e-09  0.00000000e+00
1.64463110e-03  7.40752823e+00  4.17380000e-02  1.14950000e+04  3.29000000e-09  0.00000000e+00
1.66107740e-03  7.40325648e+00  4.17600000e-02  1.13870000e+04  3.52900000e-09  0.00000000e+00
1.67768820e-03  7.39885732e+00  4.17820000e-02  1.12800000e+04  3.78500000e-09  0.00000000e+00
1.69446500e-03  7.39432690e+00  4.18050000e-02  1.11750000e+04  4.05900000e-09  0.00000000e+00
1.71140970e-03  7.38966117e+00  4.18280000e-02  1.10700000e+04  4.35200000e-09  0.00000000e+00
1.72852380e-03  7.38485586e+00  4.18520000e-02  1.09670000e+04  4.66600000e-09  0.00000000e+00
1.74580900e-03  7.37990652e+00  4.18760000e-02  1.08640000e+04  5.00200000e-09  0.00000000e+00
1.76326710e-03  7.37480845e+00  4.19000000e-02  1.07630000e+04  5.36100000e-09  0.00000000e+00
1.78089970e-03  7.36955672e+00  4.19250000e-02  1.06630000e+04  5.74500000e-09  0.00000000e+00
1.79870870e-03  7.36414614e+00  4.19500000e-02  1.05630000e+04  6.15500000e-09  0.00000000e+00
1.81669580e-03  7.35857124e+00  4.19750000e-02  1.04650000e+04  6.59500000e-09  0.00000000e+00
1.83486270e-03  7.35282630e+00  4.20010000e-02  1.03680000e+04  7.06400000e-09  0.00000000e+00
1.85321130e-03  7.34690524e+00  4.20270000e-02  1.02720000e+04  7.56600000e-09  0.00000000e+00
1.87174340e-03  7.34080170e+00  4.20540000e-02  1.01760000e+04  8.10300000e-09  0.00000000e+00
1.89046080e-03  7.33450894e+00  4.20820000e-02  1.00820000e+04  8.67600000e-09  0.00000000e+00
1.90936540e-03  7.32801984e+00  4.21090000e-02  9.98900000e+03  9.28900000e-09  0.00000000e+00
1.92845900e-03  7.32132691e+00  4.21380000e-02  9.89680000e+03  9.94300000e-09  0.00000000e+00
1.94774360e-03  7.31442220e+00  4.21670000e-02  9.80550000e+03  1.06400000e-08  0.00000000e+00
1.96722100e-03  7.30729728e+00  4.21960000e-02  9.71520000e+03  1.13900000e-08  0.00000000e+00
1.98689320e-03  7.29994325e+00  4.22260000e-02  9.62590000e+03  1.21900000e-08  0.00000000e+00
2.00676210e-03  7.29235064e+00  4.22570000e-02  9.53750000e+03  1.30400000e-08  0.00000000e+00
2.02682970e-03  7.28450939e+00  4.22880000e-02  9.45010000e+03  1.39500000e-08  0.00000000e+00
2.04709800e-03  7.27640862e+00  4.23200000e-02  9.36360000e+03  1.49200000e-08  0.00000000e+00
2.06756900e-03  7.26803732e+00  4.23530000e-02  9.27800000e+03  1.59600000e-08  0.00000000e+00
2.08824460e-03  7.25938315e+00  4.23860000e-02  9.19340000e+03  1.70600000e-08  0.00000000e+00
2.10912710e-03  7.25043334e+00  4.24210000e-02  9.10980000e+03  1.82400000e-08  0.00000000e+00
2.13021830e-03  7.24117337e+00  4.24560000e-02  9.02700000e+03  1.95000000e-08  0.00000000e+00
2.15152050e-03  7.23158900e+00  4.24920000e-02  8.94520000e+03  2.08400000e-08  0.00000000e+00
2.17303570e-03  7.22166403e+00  4.25280000e-02  8.86430000e+03  2.22800000e-08  0.00000000e+00
2.19476600e-03  7.21138130e+00  4.25660000e-02  8.78440000e+03  2.38100000e-08  0.00000000e+00
2.21671360e-03  7.20072229e+00  4.26050000e-02  8.70530000e+03  2.54400000e-08  0.00000000e+00
2.23888080e-03  7.18966702e+00  4.26450000e-02  8.62720000e+03  2.71700000e-08  0.00000000e+00
2.26126950e-03  7.17819386e+00  4.26860000e-02  8.55000000e+03  2.90200000e-08  0.00000000e+00
2.28388220e-03  7.16627937e+00  4.27290000e-02  8.47380000e+03  3.10000000e-08  0.00000000e+00
2.30672100e-03  7.15389804e+00  4.27720000e-02  8.39850000e+03  3.31000000e-08  0.00000000e+00
2.32978820e-03  7.14102210e+00  4.28180000e-02  8.32410000e+03  3.53500000e-08  0.00000000e+00
2.35308610e-03  7.12762115e+00  4.28640000e-02  8.25070000e+03  3.77300000e-08  0.00000000e+00
2.37661690e-03  7.11366192e+00  4.29130000e-02  8.17830000e+03  4.02800000e-08  0.00000000e+00
2.40038310e-03  7.09910778e+00  4.29630000e-02  8.10680000e+03  4.29900000e-08  0.00000000e+00
2.42438690e-03  7.08391835e+00  4.30150000e-02  8.03630000e+03  4.58800000e-08  0.00000000e+00
2.44863070e-03  7.06804918e+00  4.30700000e-02  7.96680000e+03  4.89500000e-08  0.00000000e+00
2.47311700e-03  7.05144970e+00  4.31270000e-02  7.89840000e+03  5.22300000e-08  0.00000000e+00
2.49784810e-03  7.03406528e+00  4.31870000e-02  7.83100000e+03  5.57100000e-08  0.00000000e+00
2.52282660e-03  7.01583342e+00  4.32490000e-02  7.76470000e+03  5.94200000e-08  0.00000000e+00
2.54805480e-03  6.99668405e+00  4.33160000e-02  7.69960000e+03  6.33700000e-08  0.00000000e+00
2.57353540e-03  6.97653779e+00  4.33850000e-02  7.63570000e+03  6.75700000e-08  0.00000000e+00
2.59927070e-03  6.95530426e+00  4.34600000e-02  7.57300000e+03  7.20500000e-08  0.00000000e+00
2.62526340e-03  6.93287985e+00  4.35390000e-02  7.51170000e+03  7.68000000e-08  0.00000000e+00
2.65151600e-03  6.90914504e+00  4.36230000e-02  7.45180000e+03  8.18600000e-08  0.00000000e+00
2.67803110e-03  6.88396086e+00  4.37150000e-02  7.39340000e+03  8.72500000e-08  0.00000000e+00
2.70481140e-03  6.85716441e+00  4.38130000e-02  7.33680000e+03  9.29700000e-08  0.00000000e+00
2.73185950e-03  6.82856294e+00  4.39210000e-02  7.28200000e+03  9.90600000e-08  0.00000000e+00
2.75917810e-03  6.79792608e+00  4.40400000e-02  7.22930000e+03  1.05500000e-07  0.00000000e+00
2.78676980e-03  6.76497520e+00  4.41710000e-02  7.17910000e+03  1.12400000e-07  0.00000000e+00
2.81463750e-03  6.72936889e+00  4.43190000e-02  7.13180000e+03  1.19700000e-07  0.00000000e+00
2.84278380e-03  6.69068241e+00  4.44860000e-02  7.08780000e+03  1.27500000e-07  0.00000000e+00
2.87121160e-03  6.64837814e+00  4.46780000e-02  7.04800000e+03  1.35700000e-07  0.00000000e+00
2.89992370e-03  6.60176148e+00  4.49030000e-02  7.01340000e+03  1.44500000e-07  0.00000000e+00
2.92892290e-03  6.54991316e+00  4.51720000e-02  6.98550000e+03  1.53800000e-07  0.00000000e+00
2.95821210e-03  6.49158050e+00  4.55010000e-02  6.96660000e+03  1.63700000e-07  0.00000000e+00
2.98779420e-03  6.42499426e+00  4.59160000e-02  6.96050000e+03  1.74200000e-07  0.00000000e+00
3.01767220e-03  6.34753984e+00  4.64600000e-02  6.97330000e+03  1.85400000e-07  0.00000000e+00
3.04784880e-03  6.25511791e+00  4.72130000e-02  7.01620000e+03  1.97200000e-07  0.00000000e+00
3.07832730e-03  6.14076035e+00  4.83350000e-02  7.11180000e+03  2.09800000e-07  0.00000000e+00
3.10911050e-03  5.99113972e+00  5.02080000e-02  7.31430000e+03  2.23200000e-07  0.00000000e+00
3.14020160e-03  5.77538824e+00  5.40190000e-02  7.79160000e+03  2.37400000e-07  0.00000000e+00
3.17160360e-03  5.38847676e+00  6.62500000e-02  9.46110000e+03  2.52400000e-07  0.00000000e+00
3.18031990e-03  5.19679109e+00  7.65270000e-02  1.08990000e+04  2.56700000e-07  0.00000000e+00
3.19015990e-03  4.83418988e+00  1.09780000e-01  1.55860000e+04  2.61600000e-07  0.00000000e+00
3.19507990e-03  4.47825260e+00  1.74520000e-01  2.47390000e+04  2.64100000e-07  0.00000000e+00
3.19999910e-03  2.42212948e+00  8.85690000e-01  1.25360000e+05  2.66600000e-07  0.00000000e+00
3.20000070e-03  5.39602908e+00  8.86380000e-01  1.25460000e+05  2.66600000e-07  0.00000000e+00
3.20331960e-03  4.29479898e+00  1.53600000e+00  2.17190000e+05  2.68300000e-07  0.00000000e+00
3.20491990e-03  4.48915441e+00  1.59380000e+00  2.25240000e+05  2.69200000e-07  0.00000000e+00
3.20983990e-03  4.85282286e+00  1.65470000e+00  2.33490000e+05  2.71700000e-07  0.00000000e+00
3.21967990e-03  5.22751510e+00  1.68050000e+00  2.36400000e+05  2.76900000e-07  0.00000000e+00
3.23535280e-03  5.54779340e+00  1.68350000e+00  2.35680000e+05  2.85300000e-07  0.00000000e+00
3.26770630e-03  5.90425646e+00  1.66840000e+00  2.31260000e+05  3.03200000e-07  0.00000000e+00
3.30038330e-03  6.11863666e+00  1.64790000e+00  2.26160000e+05  3.22300000e-07  0.00000000e+00
3.33338710e-03  6.27064407e+00  1.62630000e+00  2.20980000e+05  3.42500000e-07  0.00000000e+00
3.36672100e-03  6.38680016e+00  1.60430000e+00  2.15830000e+05  3.63900000e-07  0.00000000e+00
3.40038810e-03  6.47923722e+00  1.58240000e+00  2.10770000e+05  3.86600000e-07  0.00000000e+00
3.43439200e-03  6.55448361e+00  1.56060000e+00  2.05810000e+05  4.10600000e-07  0.00000000e+00
3.46873590e-03  6.61637595e+00  1.53900000e+00  2.00950000e+05  4.36200000e-07  0.00000000e+00
3.50342320e-03  6.66720741e+00  1.51760000e+00  1.96200000e+05  4.63200000e-07  0.00000000e+00
3.53845740e-03  6.70814496e+00  1.49680000e+00  1.91590000e+05  4.91800000e-07  0.00000000e+00
3.57384190e-03  6.74057316e+00  1.47840000e+00  1.87360000e+05  5.22200000e-07  0.00000000e+00
3.60958030e-03  6.76648320e+00  1.46260000e+00  1.83530000e+05  5.54300000e-07  0.00000000e+00
3.64567610e-03  6.78719756e+00  1.44940000e+00  1.80070000e+05  5.88400000e-07  0.00000000e+00
3.68213280e-03  6.80365362e+00  1.43860000e+00  1.76960000e+05  6.24400000e-07  0.00000000e+00
3.71895410e-03  6.81656013e+00  1.43000000e+00  1.74160000e+05  6.62600000e-07  0.00000000e+00
3.75614360e-03  6.82647328e+00  1.42350000e+00  1.71650000e+05  7.03000000e-07  0.00000000e+00
3.79370500e-03  6.83384026e+00  1.41900000e+00  1.69420000e+05  7.45800000e-07  0.00000000e+00
3.83164200e-03  6.83902726e+00  1.41640000e+00  1.67430000e+05  7.91100000e-07  0.00000000e+00
3.86995840e-03  6.84233864e+00  1.41570000e+00  1.65690000e+05  8.39000000e-07  0.00000000e+00
3.90865800e-03  6.84403060e+00  1.41670000e+00  1.64170000e+05  8.89800000e-07  0.00000000e+00
3.94774450e-03  6.84432121e+00  1.41940000e+00  1.62850000e+05  9.43400000e-07  0.00000000e+00
3.98722190e-03  6.84339802e+00  1.42370000e+00  1.61730000e+05  1.00000000e-06  0.00000000e+00
4.02709410e-03  6.84142388e+00  1.42960000e+00  1.60790000e+05  1.06000000e-06  0.00000000e+00
4.06736500e-03  6.83854157e+00  1.43700000e+00  1.60020000e+05  1.12400000e-06  0.00000000e+00
4.10803860e-03  6.83487732e+00  1.44590000e+00  1.59420000e+05  1.19100000e-06  0.00000000e+00
4.14911890e-03  6.83054379e+00  1.45620000e+00  1.58970000e+05  1.26200000e-06  0.00000000e+00
4.19061010e-03  6.82564237e+00  1.46800000e+00  1.58660000e+05  1.33700000e-06  0.00000000e+00
4.23251620e-03  6.82026508e+00  1.48110000e+00  1.58490000e+05  1.41700000e-06  0.00000000e+00
4.27484130e-03  6.81449618e+00  1.49550000e+00  1.58460000e+05  1.50000000e-06  0.00000000e+00
4.31758960e-03  6.80841345e+00  1.51130000e+00  1.58540000e+05  1.58900000e-06  0.00000000e+00
4.36076550e-03  6.80208925e+00  1.52840000e+00  1.58750000e+05  1.68300000e-06  0.00000000e+00
4.40437310e-03  6.79559147e+00  1.54680000e+00  1.59060000e+05  1.78200000e-06  0.00000000e+00
4.44841680e-03  6.78898425e+00  1.56640000e+00  1.59490000e+05  1.88600000e-06  0.00000000e+00
4.49290090e-03  6.78232862e+00  1.58730000e+00  1.60010000e+05  1.99700000e-06  0.00000000e+00
4.53782990e-03  6.77568307e+00  1.60930000e+00  1.60630000e+05  2.11400000e-06  0.00000000e+00
4.58320820e-03  6.76910398e+00  1.63270000e+00  1.61350000e+05  2.23700000e-06  0.00000000e+00
4.62904020e-03  6.76264601e+00  1.65720000e+00  1.62150000e+05  2.36700000e-06  0.00000000e+00
4.67533060e-03  6.75636241e+00  1.68290000e+00  1.63030000e+05  2.50400000e-06  0.00000000e+00
4.72208380e-03  6.75030534e+00  1.70970000e+00  1.63990000e+05  2.64900000e-06  0.00000000e+00
4.76930460e-03  6.74452603e+00  1.73780000e+00  1.65030000e+05  2.80200000e-06  0.00000000e+00
4.81699760e-03  6.73907504e+00  1.76700000e+00  1.66140000e+05  2.96400000e-06  0.00000000e+00
4.86516750e-03  6.73400236e+00  1.79730000e+00  1.67320000e+05  3.13400000e-06  0.00000000e+00
4.91381920e-03  6.72935755e+00  1.82870000e+00  1.68560000e+05  3.31400000e-06  0.00000000e+00
4.96295730e-03  6.72518988e+00  1.86130000e+00  1.69860000e+05  3.50300000e-06  0.00000000e+00
5.01258680e-03  6.72154827e+00  1.89490000e+00  1.71220000e+05  3.70300000e-06  0.00000000e+00
5.06271270e-03  6.71848157e+00  1.92960000e+00  1.72630000e+05  3.91400000e-06  0.00000000e+00
5.11333970e-03  6.71603838e+00  1.96540000e+00  1.74090000e+05  4.13600000e-06  0.00000000e+00
5.16447310e-03  6.71426719e+00  2.00220000e+00  1.75600000e+05  4.37100000e-06  0.00000000e+00
5.21611780e-03  6.71321632e+00  2.04010000e+00  1.77150000e+05  4.61800000e-06  0.00000000e+00
5.26827890e-03  6.71293392e+00  2.07890000e+00  1.78730000e+05  4.87900000e-06  0.00000000e+00
5.32096160e-03  6.71346795e+00  2.11880000e+00  1.80360000e+05  5.15300000e-06  0.00000000e+00
5.37417120e-03  6.71486612e+00  2.15960000e+00  1.82010000e+05  5.44300000e-06  0.00000000e+00
5.42791290e-03  6.71717586e+00  2.20130000e+00  1.83690000e+05  5.74700000e-06  0.00000000e+00
5.48219190e-03  6.72044423e+00  2.24400000e+00  1.85390000e+05  6.06900000e-06  0.00000000e+00
5.53701380e-03  6.72471785e+00  2.28750000e+00  1.87120000e+05  6.40700000e-06  0.00000000e+00
5.59238390e-03  6.73004283e+00  2.33190000e+00  1.88860000e+05  6.76300000e-06  0.00000000e+00
5.64830770e-03  6.73646467e+00  2.37700000e+00  1.90610000e+05  7.13900000e-06  0.00000000e+00
5.70479070e-03  6.74402814e+00  2.42300000e+00  1.92380000e+05  7.53400000e-06  0.00000000e+00
5.76183850e-03  6.75277722e+00  2.47000000e+00  1.94160000e+05  7.95000000e-06  0.00000000e+00
5.81945690e-03  6.76275493e+00  2.51740000e+00  1.95930000e+05  8.38800000e-06  0.00000000e+00
5.87765140e-03  6.77400325e+00  2.56550000e+00  1.97700000e+05  8.84900000e-06  0.00000000e+00
5.93642780e-03  6.78656297e+00  2.61420000e+00  1.99460000e+05  9.33400000e-06  0.00000000e+00
5.99579210e-03  6.80047359e+00  2.66350000e+00  2.01210000e+05  9.84500000e-06  0.00000000e+00
6.05574990e-03  6.81577291e+00  2.71330000e+00  2.02940000e+05  1.03800000e-05  0.00000000e+00
6.11630740e-03  6.83249792e+00  2.76370000e+00  2.04660000e+05  1.09500000e-05  0.00000000e+00
6.17747040e-03  6.85068319e+00  2.81440000e+00  2.06350000e+05  1.15400000e-05  0.00000000e+00
6.23924500e-03  6.87036167e+00  2.86550000e+00  2.08020000e+05  1.21700000e-05  0.00000000e+00
6.30163740e-03  6.89156436e+00  2.91700000e+00  2.09660000e+05  1.28200000e-05  0.00000000e+00
6.36465370e-03  6.91432015e+00  2.96870000e+00  2.11270000e+05  1.35200000e-05  0.00000000e+00
6.42830020e-03  6.93865569e+00  3.02070000e+00  2.12830000e+05  1.42400000e-05  0.00000000e+00
6.49258320e-03  6.96459529e+00  3.07270000e+00  2.14360000e+05  1.50100000e-05  0.00000000e+00
6.55750890e-03  6.99216074e+00  3.12490000e+00  2.15840000e+05  1.58100000e-05  0.00000000e+00
6.62308400e-03  7.02137124e+00  3.17710000e+00  2.17270000e+05  1.66500000e-05  0.00000000e+00
