#  Ru:    Z = 44;   Atomic weight = 101.0700 g/mol ;    nominal density:   [INLINE] = 1.2390E+01 g/cm3
#         a(barns/atom) = (cm2/g)    1.67831E+02
#         E(eV) (cm2/g) = f2(e/atom)    4.16348E+05
#         14 edges. Edge energies (keV):
# K      2.21172E+01  L I    3.22400E+00  L II   2.96690E+00  L III  2.83790E+00
# M I    5.85000E-01  M II   4.82800E-01  M III  4.60600E-01  M IV   2.83600E-01
# M V    2.79400E-01  N I    7.49000E-02  N II   4.31000E-02  N III  4.31000E-02
# N IV   2.00000E-03  N V    2.00000E-03
#         Relativistic correction estimate frel (H82,3/5CL) = -3.8596E-01, -2.4060E-01 e/atom
#         Nuclear Thomson correction fNT = -1.0508E-02 e/atom
#    _________________________________________________________________________________________________________
#  Form Factors, Attenuation and Scattering Cross-sections
#  Z=44, E = 0.001 - 1000 keV
#                                                             Attenuation
#    E         f1            f2                     [INLINE] (coh+inc) Coefficient    K       wavelength
#    keV       e/atom       e/atom      cm2/g       cm2/g      cm2/g          cm2/g        nm
1.01000000e-03  7.36636100e-01  1.23210000e-01  5.07920000e+04  4.41700000e-11  0.00000000e+00
1.02010000e-03  7.32456000e-01  1.23260000e-01  5.03080000e+04  4.78100000e-11  0.00000000e+00
1.03030100e-03  7.28173600e-01  1.23300000e-01  4.98280000e+04  5.17400000e-11  0.00000000e+00
1.04060400e-03  7.23785500e-01  1.23350000e-01  4.93530000e+04  5.59900000e-11  0.00000000e+00
1.05101010e-03  7.19288500e-01  1.23400000e-01  4.88830000e+04  6.05800000e-11  0.00000000e+00
1.06152010e-03  7.14679000e-01  1.23450000e-01  4.84180000e+04  6.55400000e-11  0.00000000e+00
1.07213530e-03  7.09953500e-01  1.23500000e-01  4.79580000e+04  7.08900000e-11  0.00000000e+00
1.08285670e-03  7.05108200e-01  1.23550000e-01  4.75020000e+04  7.66700000e-11  0.00000000e+00
1.09368520e-03  7.00139100e-01  1.23600000e-01  4.70520000e+04  8.29000000e-11  0.00000000e+00
1.10462210e-03  6.95042000e-01  1.23650000e-01  4.66050000e+04  8.96400000e-11  0.00000000e+00
1.11566830e-03  6.89812600e-01  1.23700000e-01  4.61640000e+04  9.69000000e-11  0.00000000e+00
1.12682500e-03  6.84446400e-01  1.23760000e-01  4.57270000e+04  1.04700000e-10  0.00000000e+00
1.13809320e-03  6.78938600e-01  1.23810000e-01  4.52950000e+04  1.13200000e-10  0.00000000e+00
1.14947410e-03  6.73284300e-01  1.23870000e-01  4.48670000e+04  1.22300000e-10  0.00000000e+00
1.16096880e-03  6.67478100e-01  1.23930000e-01  4.44430000e+04  1.32100000e-10  0.00000000e+00
1.17257850e-03  6.61514600e-01  1.23990000e-01  4.40250000e+04  1.42800000e-10  0.00000000e+00
1.18430430e-03  6.55388100e-01  1.24050000e-01  4.36100000e+04  1.54200000e-10  0.00000000e+00
1.19614730e-03  6.49092300e-01  1.24110000e-01  4.32000000e+04  1.66500000e-10  0.00000000e+00
1.20810880e-03  6.42620900e-01  1.24180000e-01  4.27950000e+04  1.79800000e-10  0.00000000e+00
1.22018990e-03  6.35967100e-01  1.24240000e-01  4.23930000e+04  1.94100000e-10  0.00000000e+00
1.23239180e-03  6.29123800e-01  1.24310000e-01  4.19960000e+04  2.09600000e-10  0.00000000e+00
1.24471570e-03  6.22083500e-01  1.24380000e-01  4.16040000e+04  2.26200000e-10  0.00000000e+00
1.25716280e-03  6.14838000e-01  1.24450000e-01  4.12150000e+04  2.44100000e-10  0.00000000e+00
1.26973440e-03  6.07379000e-01  1.24520000e-01  4.08310000e+04  2.63400000e-10  0.00000000e+00
1.28243180e-03  5.99697500e-01  1.24600000e-01  4.04510000e+04  2.84100000e-10  0.00000000e+00
1.29525610e-03  5.91783900e-01  1.24680000e-01  4.00760000e+04  3.06500000e-10  0.00000000e+00
1.30820860e-03  5.83628100e-01  1.24760000e-01  3.97050000e+04  3.30600000e-10  0.00000000e+00
1.32129070e-03  5.75219400e-01  1.24840000e-01  3.93370000e+04  3.56500000e-10  0.00000000e+00
1.33450360e-03  5.66546000e-01  1.24920000e-01  3.89750000e+04  3.84400000e-10  0.00000000e+00
1.34784860e-03  5.57595900e-01  1.25010000e-01  3.86160000e+04  4.14400000e-10  0.00000000e+00
1.36132710e-03  5.48355700e-01  1.25100000e-01  3.82610000e+04  4.46700000e-10  0.00000000e+00
1.37494030e-03  5.38811400e-01  1.25200000e-01  3.79110000e+04  4.81500000e-10  0.00000000e+00
1.38868970e-03  5.28947800e-01  1.25300000e-01  3.75650000e+04  5.18900000e-10  0.00000000e+00
1.40257660e-03  5.18748600e-01  1.25400000e-01  3.72240000e+04  5.59100000e-10  0.00000000e+00
1.41660240e-03  5.08196200e-01  1.25500000e-01  3.68860000e+04  6.02300000e-10  0.00000000e+00
1.43076840e-03  4.97271600e-01  1.25610000e-01  3.65530000e+04  6.48800000e-10  0.00000000e+00
1.44507600e-03  4.85954200e-01  1.25730000e-01  3.62250000e+04  6.98700000e-10  0.00000000e+00
1.45952680e-03  4.74221700e-01  1.25850000e-01  3.59000000e+04  7.52400000e-10  0.00000000e+00
1.47412200e-03  4.62049700e-01  1.25980000e-01  3.55800000e+04  8.10200000e-10  0.00000000e+00
1.48886320e-03  4.49411700e-01  1.26110000e-01  3.52650000e+04  8.72200000e-10  0.00000000e+00
1.50375190e-03  4.36278700e-01  1.26250000e-01  3.49550000e+04  9.38800000e-10  0.00000000e+00
1.51878940e-03  4.22618800e-01  1.26400000e-01  3.46490000e+04  1.01000000e-09  0.00000000e+00
1.53397720e-03  4.08396900e-01  1.26550000e-01  3.43480000e+04  1.08700000e-09  0.00000000e+00
1.54931700e-03  3.93574000e-01  1.26720000e-01  3.40520000e+04  1.17000000e-09  0.00000000e+00
1.56481020e-03  3.78107200e-01  1.26890000e-01  3.37620000e+04  1.25900000e-09  0.00000000e+00
1.58045820e-03  3.61948500e-01  1.27080000e-01  3.34770000e+04  1.35400000e-09  0.00000000e+00
1.59626280e-03  3.45044100e-01  1.27280000e-01  3.31980000e+04  1.45600000e-09  0.00000000e+00
1.61222540e-03  3.27333600e-01  1.27490000e-01  3.29240000e+04  1.56600000e-09  0.00000000e+00
1.62834770e-03  3.08748700e-01  1.27730000e-01  3.26580000e+04  1.68300000e-09  0.00000000e+00
1.64463110e-03  2.89211800e-01  1.27980000e-01  3.23980000e+04  1.81000000e-09  0.00000000e+00
1.66107740e-03  2.68634000e-01  1.28250000e-01  3.21460000e+04  1.94500000e-09  0.00000000e+00
1.67768820e-03  2.46913200e-01  1.28550000e-01  3.19030000e+04  2.09100000e-09  0.00000000e+00
1.69446500e-03  2.23930500e-01  1.28880000e-01  3.16680000e+04  2.24700000e-09  0.00000000e+00
1.71140970e-03  1.99547000e-01  1.29250000e-01  3.14440000e+04  2.41400000e-09  0.00000000e+00
1.72852380e-03  1.73598700e-01  1.29670000e-01  3.12330000e+04  2.59300000e-09  0.00000000e+00
1.74580900e-03  1.45889500e-01  1.30130000e-01  3.10350000e+04  2.78500000e-09  0.00000000e+00
1.76326710e-03  1.16183000e-01  1.30670000e-01  3.08540000e+04  2.99100000e-09  0.00000000e+00
1.78089970e-03  8.41894200e-02  1.31290000e-01  3.06930000e+04  3.21200000e-09  0.00000000e+00
1.79870870e-03  4.95485400e-02  1.32010000e-01  3.05570000e+04  3.44900000e-09  0.00000000e+00
1.81669580e-03  1.18043700e-02  1.32880000e-01  3.04530000e+04  3.70200000e-09  0.00000000e+00
1.83486270e-03  -2.96326200e-02  1.33930000e-01  3.03910000e+04  3.97400000e-09  0.00000000e+00
1.85321130e-03  -7.55439700e-02  1.35250000e-01  3.03860000e+04  4.26500000e-09  0.00000000e+00
1.87174340e-03  -1.26997500e-01  1.36950000e-01  3.04630000e+04  4.57700000e-09  0.00000000e+00
1.89046080e-03  -1.85506900e-01  1.39230000e-01  3.06640000e+04  4.91000000e-09  0.00000000e+00
1.90936540e-03  -2.53318800e-01  1.42470000e-01  3.10650000e+04  5.26800000e-09  0.00000000e+00
1.92845900e-03  -3.33963900e-01  1.47430000e-01  3.18300000e+04  5.65000000e-09  0.00000000e+00
1.94774360e-03  -4.33379900e-01  1.56070000e-01  3.33620000e+04  6.06000000e-09  0.00000000e+00
1.96722100e-03  -5.61989800e-01  1.74900000e-01  3.70170000e+04  6.49800000e-09  0.00000000e+00
1.98689320e-03  -7.25356600e-01  2.46830000e-01  5.17240000e+04  6.96700000e-09  0.00000000e+00
2.00676210e-03  -5.50747100e-01  1.02630000e+00  2.12940000e+05  7.46900000e-09  0.00000000e+00
2.02682970e-03  -5.92611200e-01  1.19540000e+00  2.45560000e+05  8.00500000e-09  0.00000000e+00
2.04709800e-03  -5.09003400e-01  1.23660000e+00  2.51510000e+05  8.57900000e-09  0.00000000e+00
2.06756900e-03  -4.37243200e-01  1.26240000e+00  2.54210000e+05  9.19400000e-09  0.00000000e+00
2.08824460e-03  -3.78322200e-01  1.28350000e+00  2.55890000e+05  9.85000000e-09  0.00000000e+00
2.10912710e-03  -3.28943200e-01  1.30260000e+00  2.57130000e+05  1.05500000e-08  0.00000000e+00
2.13021830e-03  -2.86552900e-01  1.32070000e+00  2.58140000e+05  1.13000000e-08  0.00000000e+00
2.15152050e-03  -2.49368400e-01  1.33840000e+00  2.59010000e+05  1.21000000e-08  0.00000000e+00
2.17303570e-03  -2.16119700e-01  1.35590000e+00  2.59790000e+05  1.29600000e-08  0.00000000e+00
2.19476600e-03  -1.85849900e-01  1.37330000e+00  2.60520000e+05  1.38800000e-08  0.00000000e+00
2.21671360e-03  -1.57777300e-01  1.39060000e+00  2.61180000e+05  1.48600000e-08  0.00000000e+00
2.23888080e-03  -1.31470300e-01  1.40750000e+00  2.61740000e+05  1.59000000e-08  0.00000000e+00
2.26126950e-03  -1.06701800e-01  1.42410000e+00  2.62200000e+05  1.70200000e-08  0.00000000e+00
2.28388220e-03  -8.32620100e-02  1.44030000e+00  2.62570000e+05  1.82100000e-08  0.00000000e+00
2.30672100e-03  -6.09736300e-02  1.45620000e+00  2.62840000e+05  1.94900000e-08  0.00000000e+00
2.32978820e-03  -3.96902300e-02  1.47190000e+00  2.63040000e+05  2.08500000e-08  0.00000000e+00
2.35308610e-03  -1.92914200e-02  1.48730000e+00  2.63150000e+05  2.23000000e-08  0.00000000e+00
2.37661690e-03  3.22057100e-04  1.50240000e+00  2.63200000e+05  2.38500000e-08  0.00000000e+00
2.40038310e-03  1.92324300e-02  1.51730000e+00  2.63170000e+05  2.55000000e-08  0.00000000e+00
2.42438690e-03  3.75081900e-02  1.53190000e+00  2.63080000e+05  2.72700000e-08  0.00000000e+00
2.44863070e-03  5.52066800e-02  1.54630000e+00  2.62930000e+05  2.91500000e-08  0.00000000e+00
2.47311700e-03  7.23761900e-02  1.56060000e+00  2.62720000e+05  3.11600000e-08  0.00000000e+00
2.49784810e-03  8.90575700e-02  1.57460000e+00  2.62450000e+05  3.33000000e-08  0.00000000e+00
2.52282660e-03  1.05285500e-01  1.58840000e+00  2.62140000e+05  3.55900000e-08  0.00000000e+00
2.54805480e-03  1.21089700e-01  1.60200000e+00  2.61770000e+05  3.80200000e-08  0.00000000e+00
2.57353540e-03  1.36495600e-01  1.61550000e+00  2.61350000e+05  4.06200000e-08  0.00000000e+00
2.59927070e-03  1.51525000e-01  1.62880000e+00  2.60900000e+05  4.33900000e-08  0.00000000e+00
2.62526340e-03  1.66197000e-01  1.64190000e+00  2.60400000e+05  4.63400000e-08  0.00000000e+00
2.65151600e-03  1.80528100e-01  1.65490000e+00  2.59860000e+05  4.94900000e-08  0.00000000e+00
2.67803110e-03  1.94532500e-01  1.66780000e+00  2.59290000e+05  5.28400000e-08  0.00000000e+00
2.70481140e-03  2.08223000e-01  1.68050000e+00  2.58680000e+05  5.64100000e-08  0.00000000e+00
2.73185950e-03  2.21610700e-01  1.69310000e+00  2.58040000e+05  6.02100000e-08  0.00000000e+00
2.75917810e-03  2.34705500e-01  1.70560000e+00  2.57370000e+05  6.42700000e-08  0.00000000e+00
2.78676980e-03  2.47516100e-01  1.71800000e+00  2.56680000e+05  6.85800000e-08  0.00000000e+00
2.81463750e-03  2.60050500e-01  1.73030000e+00  2.55960000e+05  7.31800000e-08  0.00000000e+00
2.84278380e-03  2.72315700e-01  1.74260000e+00  2.55210000e+05  7.80700000e-08  0.00000000e+00
2.87121160e-03  2.84318300e-01  1.75470000e+00  2.54450000e+05  8.32800000e-08  0.00000000e+00
2.89992370e-03  2.96064100e-01  1.76680000e+00  2.53670000e+05  8.88300000e-08  0.00000000e+00
2.92892290e-03  3.07558600e-01  1.77890000e+00  2.52870000e+05  9.47300000e-08  0.00000000e+00
2.95821210e-03  3.18806800e-01  1.79090000e+00  2.52050000e+05  1.01000000e-07  0.00000000e+00
2.98779420e-03  3.29813600e-01  1.80280000e+00  2.51220000e+05  1.07700000e-07  0.00000000e+00
3.01767220e-03  3.40583300e-01  1.81470000e+00  2.50380000e+05  1.14800000e-07  0.00000000e+00
3.04784880e-03  3.51120100e-01  1.82660000e+00  2.49530000e+05  1.22400000e-07  0.00000000e+00
3.07832730e-03  3.61428200e-01  1.83850000e+00  2.48670000e+05  1.30400000e-07  0.00000000e+00
3.10911050e-03  3.71511300e-01  1.85040000e+00  2.47800000e+05  1.38900000e-07  0.00000000e+00
3.14020160e-03  3.81373300e-01  1.86240000e+00  2.46920000e+05  1.48000000e-07  0.00000000e+00
3.17160360e-03  3.91017900e-01  1.87430000e+00  2.46040000e+05  1.57700000e-07  0.00000000e+00
3.20331960e-03  4.00448600e-01  1.88620000e+00  2.45160000e+05  1.68000000e-07  0.00000000e+00
3.23535280e-03  4.09669000e-01  1.89820000e+00  2.44270000e+05  1.78900000e-07  0.00000000e+00
3.26770630e-03  4.18682600e-01  1.91020000e+00  2.43390000e+05  1.90500000e-07  0.00000000e+00
3.30038330e-03  4.27492900e-01  1.92230000e+00  2.42500000e+05  2.02800000e-07  0.00000000e+00
3.33338710e-03  4.36103400e-01  1.93440000e+00  2.41610000e+05  2.15900000e-07  0.00000000e+00
3.36672100e-03  4.44517400e-01  1.94660000e+00  2.40730000e+05  2.29800000e-07  0.00000000e+00
3.40038810e-03  4.52738600e-01  1.95890000e+00  2.39850000e+05  2.44600000e-07  0.00000000e+00
3.43439200e-03  4.60770400e-01  1.97120000e+00  2.38970000e+05  2.60300000e-07  0.00000000e+00
3.46873590e-03  4.68616400e-01  1.98370000e+00  2.38100000e+05  2.76900000e-07  0.00000000e+00
3.50342320e-03  4.76280000e-01  1.99620000e+00  2.37230000e+05  2.94600000e-07  0.00000000e+00
3.53845740e-03  4.83764900e-01  2.00880000e+00  2.36370000e+05  3.13400000e-07  0.00000000e+00
3.57384190e-03  4.91074700e-01  2.02160000e+00  2.35510000e+05  3.33300000e-07  0.00000000e+00
3.60958030e-03  4.98213000e-01  2.03450000e+00  2.34670000e+05  3.54400000e-07  0.00000000e+00
3.64567610e-03  5.05183600e-01  2.04750000e+00  2.33830000e+05  3.76800000e-07  0.00000000e+00
3.68213280e-03  5.11990200e-01  2.06060000e+00  2.33000000e+05  4.00600000e-07  0.00000000e+00
3.71895410e-03  5.18636700e-01  2.07390000e+00  2.32180000e+05  4.25900000e-07  0.00000000e+00
3.75614360e-03  5.25126800e-01  2.08730000e+00  2.31370000e+05  4.52600000e-07  0.00000000e+00
3.79370500e-03  5.31464600e-01  2.10090000e+00  2.30570000e+05  4.81000000e-07  0.00000000e+00
3.83164200e-03  5.37653900e-01  2.11460000e+00  2.29780000e+05  5.11100000e-07  0.00000000e+00
3.86995840e-03  5.43698900e-01  2.12850000e+00  2.29000000e+05  5.43000000e-07  0.00000000e+00
3.90865800e-03  5.49603600e-01  2.14260000e+00  2.28230000e+05  5.76800000e-07  0.00000000e+00
3.94774450e-03  5.55372100e-01  2.15690000e+00  2.27480000e+05  6.12700000e-07  0.00000000e+00
3.98722190e-03  5.61008800e-01  2.17140000e+00  2.26740000e+05  6.50700000e-07  0.00000000e+00
4.02709410e-03  5.66517700e-01  2.18600000e+00  2.26010000e+05  6.90900000e-07  0.00000000e+00
4.06736500e-03  5.71903400e-01  2.20090000e+00  2.25290000e+05  7.33600000e-07  0.00000000e+00
4.10803860e-03  5.77170200e-01  2.21600000e+00  2.24590000e+05  7.78700000e-07  0.00000000e+00
4.14911890e-03  5.82322600e-01  2.23130000e+00  2.23900000e+05  8.26600000e-07  0.00000000e+00
4.19061010e-03  5.87365000e-01  2.24680000e+00  2.23220000e+05  8.77300000e-07  0.00000000e+00
4.23251620e-03  5.92302200e-01  2.26250000e+00  2.22560000e+05  9.30900000e-07  0.00000000e+00
4.27484130e-03  5.97138900e-01  2.27850000e+00  2.21920000e+05  9.87700000e-07  0.00000000e+00
4.31758960e-03  6.01879700e-01  2.29470000e+00  2.21280000e+05  1.04800000e-06  0.00000000e+00
4.36076550e-03  6.06529500e-01  2.31120000e+00  2.20660000e+05  1.11200000e-06  0.00000000e+00
4.40437310e-03  6.11093100e-01  2.32790000e+00  2.20060000e+05  1.17900000e-06  0.00000000e+00
4.44841680e-03  6.15575700e-01  2.34490000e+00  2.19470000e+05  1.25000000e-06  0.00000000e+00
4.49290090e-03  6.19982200e-01  2.36210000e+00  2.18890000e+05  1.32600000e-06  0.00000000e+00
4.53782990e-03  6.24317700e-01  2.37960000e+00  2.18330000e+05  1.40500000e-06  0.00000000e+00
4.58320820e-03  6.28587500e-01  2.39740000e+00  2.17790000e+05  1.49000000e-06  0.00000000e+00
4.62904020e-03  6.32796900e-01  2.41550000e+00  2.17250000e+05  1.57900000e-06  0.00000000e+00
4.67533060e-03  6.36951200e-01  2.43380000e+00  2.16740000e+05  1.67300000e-06  0.00000000e+00
4.72208380e-03  6.41055900e-01  2.45250000e+00  2.16230000e+05  1.77300000e-06  0.00000000e+00
4.76930460e-03  6.45116500e-01  2.47140000e+00  2.15750000e+05  1.87900000e-06  0.00000000e+00
4.81699760e-03  6.49138800e-01  2.49060000e+00  2.15270000e+05  1.99000000e-06  0.00000000e+00
4.86516750e-03  6.53128300e-01  2.51020000e+00  2.14820000e+05  2.10800000e-06  0.00000000e+00
4.91381920e-03  6.57091000e-01  2.53010000e+00  2.14370000e+05  2.23300000e-06  0.00000000e+00
4.96295730e-03  6.61032800e-01  2.55020000e+00  2.13940000e+05  2.36400000e-06  0.00000000e+00
5.01258680e-03  6.64959600e-01  2.57070000e+00  2.13530000e+05  2.50300000e-06  0.00000000e+00
5.06271270e-03  6.68877600e-01  2.59160000e+00  2.13130000e+05  2.65000000e-06  0.00000000e+00
5.11333970e-03  6.72792900e-01  2.61270000e+00  2.12740000e+05  2.80500000e-06  0.00000000e+00
5.16447310e-03  6.76712000e-01  2.63420000e+00  2.12370000e+05  2.96900000e-06  0.00000000e+00
5.21611780e-03  6.80641100e-01  2.65610000e+00  2.12010000e+05  3.14200000e-06  0.00000000e+00
5.26827890e-03  6.84586900e-01  2.67830000e+00  2.11660000e+05  3.32500000e-06  0.00000000e+00
5.32096160e-03  6.88556000e-01  2.70080000e+00  2.11330000e+05  3.51700000e-06  0.00000000e+00
5.37417120e-03  6.92555000e-01  2.72370000e+00  2.11010000e+05  3.72100000e-06  0.00000000e+00
5.42791290e-03  6.96591000e-01  2.74700000e+00  2.10710000e+05  3.93600000e-06  0.00000000e+00
5.48219190e-03  7.00670800e-01  2.77060000e+00  2.10420000e+05  4.16200000e-06  0.00000000e+00
5.53701380e-03  7.04801500e-01  2.79460000e+00  2.10140000e+05  4.40100000e-06  0.00000000e+00
5.59238390e-03  7.08990300e-01  2.81900000e+00  2.09870000e+05  4.65300000e-06  0.00000000e+00
5.64830770e-03  7.13244700e-01  2.84370000e+00  2.09620000e+05  4.91900000e-06  0.00000000e+00
5.70479070e-03  7.17572000e-01  2.86890000e+00  2.09380000e+05  5.20000000e-06  0.00000000e+00
5.76183850e-03  7.21979800e-01  2.89440000e+00  2.09150000e+05  5.49600000e-06  0.00000000e+00
5.81945690e-03  7.26475900e-01  2.92030000e+00  2.08930000e+05  5.80800000e-06  0.00000000e+00
5.87765140e-03  7.31068100e-01  2.94660000e+00  2.08730000e+05  6.13600000e-06  0.00000000e+00
5.93642780e-03  7.35764400e-01  2.97330000e+00  2.08530000e+05  6.48300000e-06  0.00000000e+00
5.99579210e-03  7.40573000e-01  3.00040000e+00  2.08350000e+05  6.84800000e-06  0.00000000e+00
6.05574990e-03  8.94031100e-01  3.02790000e+00  2.08180000e+05  7.23300000e-06  0.00000000e+00
6.11630740e-03  8.99106300e-01  3.05580000e+00  2.08020000e+05  7.63900000e-06  0.00000000e+00
6.17747040e-03  9.04319700e-01  3.08420000e+00  2.07870000e+05  8.06600000e-06  0.00000000e+00
6.23924500e-03  9.09679900e-01  3.11290000e+00  2.07730000e+05  8.51700000e-06  0.00000000e+00
6.30163740e-03  9.15196000e-01  3.14210000e+00  2.07600000e+05  8.99100000e-06  0.00000000e+00
6.36465370e-03  9.20877000e-01  3.17170000e+00  2.07480000e+05  9.49000000e-06  0.00000000e+00
6.42830020e-03  9.26732200e-01  3.20170000e+00  2.07370000e+05  1.00200000e-05  0.00000000e+00
6.49258320e-03  9.32771000e-01  3.23210000e+00  2.07270000e+05  1.05700000e-05  0.00000000e+00
6.55750890e-03  9.39003100e-01  3.26300000e+00  2.07170000e+05  1.11500000e-05  0.00000000e+00
6.62308400e-03  9.45438200e-01  3.29430000e+00  2.07090000e+05  1.17700000e-05  0.00000000e+00
6.68931470e-03  9.52086400e-01  3.32600000e+00  2.07010000e+05  1.24100000e-05  0.00000000e+00
6.75620780e-03  9.58957900e-01  3.35820000e+00  2.06950000e+05  1.30900000e-05  0.00000000e+00
6.82376980e-03  9.66063200e-01  3.39080000e+00  2.06890000e+05  1.38100000e-05  0.00000000e+00
6.89200750e-03  9.73412900e-01  3.42390000e+00  2.06840000e+05  1.45600000e-05  0.00000000e+00
6.96092750e-03  9.81017800e-01  3.45730000e+00  2.06790000e+05  1.53500000e-05  0.00000000e+00
7.03053670e-03  9.88889300e-01  3.49130000e+00  2.06750000e+05  1.61800000e-05  0.00000000e+00
7.10084200e-03  9.97038600e-01  3.52570000e+00  2.06720000e+05  1.70500000e-05  0.00000000e+00
7.17185030e-03  1.00547800e+00  3.56050000e+00  2.06700000e+05  1.79700000e-05  0.00000000e+00
