#  Pd:    Z = 46;   Atomic weight = 106.4200 g/mol ;    nominal density:   [INLINE] = 1.2000E+01 g/cm3
#         a(barns/atom) = (cm2/g)    1.76715E+02
#         E(eV) (cm2/g) = f2(e/atom)    3.95417E+05
#         14 edges. Edge energies (keV):
# K      2.43503E+01  L I    3.60430E+00  L II   3.33030E+00  L III  3.17330E+00
# M I    6.69900E-01  M II   5.59100E-01  M III  5.31500E-01  M IV   3.40000E-01
# M V    3.34700E-01  N I    8.64000E-02  N II   5.11000E-02  N III  5.11000E-02
# N IV   5.44663E-03  N V    5.01841E-03
#         Relativistic correction estimate frel (H82,3/5CL) = -4.3111E-01, -2.6820E-01 e/atom
#         Nuclear Thomson correction fNT = -1.0908E-02 e/atom
#    _________________________________________________________________________________________________________
#  Form Factors, Attenuation and Scattering Cross-sections
#  Z=46, E = 0.001 - 1000 keV
#                                                             Attenuation
#    E         f1            f2                     [INLINE] (coh+inc) Coefficient    K       wavelength
#    keV       e/atom       e/atom      cm2/g       cm2/g      cm2/g          cm2/g        nm
1.01000000e-03  8.15865644e+00  1.80210000e-01  7.05510000e+04  2.53100000e-11  0.00000000e+00
1.02010000e-03  8.19831536e+00  1.80240000e-01  6.98670000e+04  2.74500000e-11  0.00000000e+00
1.03030100e-03  8.22045520e+00  1.80280000e-01  6.91910000e+04  2.97700000e-11  0.00000000e+00
1.04060400e-03  8.23613644e+00  1.80320000e-01  6.85210000e+04  3.22800000e-11  0.00000000e+00
1.05101010e-03  8.24831688e+00  1.80360000e-01  6.78570000e+04  3.49900000e-11  0.00000000e+00
1.06152010e-03  8.25822876e+00  1.80400000e-01  6.72010000e+04  3.79300000e-11  0.00000000e+00
1.07213530e-03  8.26655187e+00  1.80440000e-01  6.65500000e+04  4.11100000e-11  0.00000000e+00
1.08285670e-03  8.27382615e+00  1.80490000e-01  6.59070000e+04  4.45500000e-11  0.00000000e+00
1.09368520e-03  8.28004421e+00  1.80530000e-01  6.52690000e+04  4.82600000e-11  0.00000000e+00
1.10462210e-03  8.28563127e+00  1.80570000e-01  6.46380000e+04  5.22800000e-11  0.00000000e+00
1.11566830e-03  8.29053498e+00  1.80610000e-01  6.40130000e+04  5.66300000e-11  0.00000000e+00
1.12682500e-03  8.29495300e+00  1.80660000e-01  6.33950000e+04  6.13200000e-11  0.00000000e+00
1.13809320e-03  8.29895870e+00  1.80700000e-01  6.27830000e+04  6.64000000e-11  0.00000000e+00
1.14947410e-03  8.30260915e+00  1.80750000e-01  6.21760000e+04  7.18900000e-11  0.00000000e+00
1.16096880e-03  8.30594956e+00  1.80790000e-01  6.15760000e+04  7.78100000e-11  0.00000000e+00
1.17257850e-03  8.30901635e+00  1.80840000e-01  6.09810000e+04  8.42200000e-11  0.00000000e+00
1.18430430e-03  8.31183924e+00  1.80880000e-01  6.03930000e+04  9.11300000e-11  0.00000000e+00
1.19614730e-03  8.31444280e+00  1.80930000e-01  5.98100000e+04  9.86100000e-11  0.00000000e+00
1.20810880e-03  8.31684751e+00  1.80970000e-01  5.92340000e+04  1.06700000e-10  0.00000000e+00
1.22018990e-03  8.31907064e+00  1.81020000e-01  5.86620000e+04  1.15400000e-10  0.00000000e+00
1.23239180e-03  8.32112685e+00  1.81070000e-01  5.80970000e+04  1.24800000e-10  0.00000000e+00
1.24471570e-03  8.32302867e+00  1.81120000e-01  5.75370000e+04  1.34900000e-10  0.00000000e+00
1.25716280e-03  8.32478688e+00  1.81170000e-01  5.69830000e+04  1.45900000e-10  0.00000000e+00
1.26973440e-03  8.32641079e+00  1.81220000e-01  5.64340000e+04  1.57700000e-10  0.00000000e+00
1.28243180e-03  8.32790849e+00  1.81270000e-01  5.58910000e+04  1.70500000e-10  0.00000000e+00
1.29525610e-03  8.32928703e+00  1.81320000e-01  5.53530000e+04  1.84200000e-10  0.00000000e+00
1.30820860e-03  8.33055260e+00  1.81370000e-01  5.48200000e+04  1.99000000e-10  0.00000000e+00
1.32129070e-03  8.33171060e+00  1.81420000e-01  5.42930000e+04  2.15000000e-10  0.00000000e+00
1.33450360e-03  8.33276579e+00  1.81470000e-01  5.37710000e+04  2.32300000e-10  0.00000000e+00
1.34784860e-03  8.33372237e+00  1.81530000e-01  5.32540000e+04  2.50900000e-10  0.00000000e+00
1.36132710e-03  8.33458402e+00  1.81580000e-01  5.27430000e+04  2.70900000e-10  0.00000000e+00
1.37494030e-03  8.33535400e+00  1.81630000e-01  5.22360000e+04  2.92500000e-10  0.00000000e+00
1.38868970e-03  8.33603519e+00  1.81690000e-01  5.17350000e+04  3.15800000e-10  0.00000000e+00
1.40257660e-03  8.33663011e+00  1.81750000e-01  5.12380000e+04  3.40900000e-10  0.00000000e+00
1.41660240e-03  8.33714098e+00  1.81800000e-01  5.07460000e+04  3.67900000e-10  0.00000000e+00
1.43076840e-03  8.33756975e+00  1.81860000e-01  5.02600000e+04  3.97000000e-10  0.00000000e+00
1.44507600e-03  8.33791812e+00  1.81920000e-01  4.97780000e+04  4.28300000e-10  0.00000000e+00
1.45952680e-03  8.33818758e+00  1.81970000e-01  4.93010000e+04  4.62100000e-10  0.00000000e+00
1.47412200e-03  8.33837938e+00  1.82030000e-01  4.88280000e+04  4.98400000e-10  0.00000000e+00
1.48886320e-03  8.33849463e+00  1.82090000e-01  4.83610000e+04  5.37500000e-10  0.00000000e+00
1.50375190e-03  8.33853424e+00  1.82150000e-01  4.78980000e+04  5.79600000e-10  0.00000000e+00
1.51878940e-03  8.33849897e+00  1.82210000e-01  4.74390000e+04  6.24900000e-10  0.00000000e+00
1.53397720e-03  8.33838945e+00  1.82280000e-01  4.69860000e+04  6.73600000e-10  0.00000000e+00
1.54931700e-03  8.33820615e+00  1.82340000e-01  4.65360000e+04  7.26000000e-10  0.00000000e+00
1.56481020e-03  8.33794944e+00  1.82400000e-01  4.60910000e+04  7.82400000e-10  0.00000000e+00
1.58045820e-03  8.33761956e+00  1.82460000e-01  4.56510000e+04  8.43100000e-10  0.00000000e+00
1.59626280e-03  8.33721663e+00  1.82530000e-01  4.52150000e+04  9.08300000e-10  0.00000000e+00
1.61222540e-03  8.33674069e+00  1.82590000e-01  4.47840000e+04  9.78400000e-10  0.00000000e+00
1.62834770e-03  8.33619167e+00  1.82660000e-01  4.43560000e+04  1.05400000e-09  0.00000000e+00
1.64463110e-03  8.33556940e+00  1.82730000e-01  4.39330000e+04  1.13500000e-09  0.00000000e+00
1.66107740e-03  8.33487362e+00  1.82800000e-01  4.35140000e+04  1.22200000e-09  0.00000000e+00
1.67768820e-03  8.33410400e+00  1.82860000e-01  4.31000000e+04  1.31500000e-09  0.00000000e+00
1.69446500e-03  8.33326011e+00  1.82930000e-01  4.26890000e+04  1.41600000e-09  0.00000000e+00
1.71140970e-03  8.33234144e+00  1.83000000e-01  4.22830000e+04  1.52400000e-09  0.00000000e+00
1.72852380e-03  8.33134743e+00  1.83080000e-01  4.18800000e+04  1.64000000e-09  0.00000000e+00
1.74580900e-03  8.33027739e+00  1.83150000e-01  4.14820000e+04  1.76400000e-09  0.00000000e+00
1.76326710e-03  8.32913062e+00  1.83220000e-01  4.10880000e+04  1.89800000e-09  0.00000000e+00
1.78089970e-03  8.32790630e+00  1.83290000e-01  4.06970000e+04  2.04200000e-09  0.00000000e+00
1.79870870e-03  8.32660355e+00  1.83370000e-01  4.03110000e+04  2.19600000e-09  0.00000000e+00
1.81669580e-03  8.32522142e+00  1.83440000e-01  3.99280000e+04  2.36100000e-09  0.00000000e+00
1.83486270e-03  8.32375891e+00  1.83520000e-01  3.95490000e+04  2.53900000e-09  0.00000000e+00
1.85321130e-03  8.32221491e+00  1.83600000e-01  3.91740000e+04  2.72900000e-09  0.00000000e+00
1.87174340e-03  8.32058828e+00  1.83680000e-01  3.88030000e+04  2.93300000e-09  0.00000000e+00
1.89046080e-03  8.31887778e+00  1.83760000e-01  3.84350000e+04  3.15200000e-09  0.00000000e+00
1.90936540e-03  8.31708211e+00  1.83840000e-01  3.80710000e+04  3.38700000e-09  0.00000000e+00
1.92845900e-03  8.31519992e+00  1.83920000e-01  3.77110000e+04  3.63900000e-09  0.00000000e+00
1.94774360e-03  8.31322975e+00  1.84000000e-01  3.73550000e+04  3.91000000e-09  0.00000000e+00
1.96722100e-03  8.31117009e+00  1.84080000e-01  3.70020000e+04  4.19900000e-09  0.00000000e+00
1.98689320e-03  8.30901937e+00  1.84170000e-01  3.66520000e+04  4.51000000e-09  0.00000000e+00
2.00676210e-03  8.30677592e+00  1.84260000e-01  3.63060000e+04  4.84200000e-09  0.00000000e+00
2.02682970e-03  8.30443801e+00  1.84340000e-01  3.59640000e+04  5.19900000e-09  0.00000000e+00
2.04709800e-03  8.30200383e+00  1.84430000e-01  3.56250000e+04  5.58100000e-09  0.00000000e+00
2.06756900e-03  8.29947149e+00  1.84520000e-01  3.52890000e+04  5.99000000e-09  0.00000000e+00
2.08824460e-03  8.29683902e+00  1.84610000e-01  3.49570000e+04  6.42800000e-09  0.00000000e+00
2.10912710e-03  8.29410438e+00  1.84700000e-01  3.46280000e+04  6.89700000e-09  0.00000000e+00
2.13021830e-03  8.29126541e+00  1.84790000e-01  3.43020000e+04  7.40000000e-09  0.00000000e+00
2.15152050e-03  8.28831991e+00  1.84890000e-01  3.39800000e+04  7.93800000e-09  0.00000000e+00
2.17303570e-03  8.28526557e+00  1.84980000e-01  3.36610000e+04  8.51400000e-09  0.00000000e+00
2.19476600e-03  8.28209997e+00  1.85080000e-01  3.33450000e+04  9.13000000e-09  0.00000000e+00
2.21671360e-03  8.27882062e+00  1.85180000e-01  3.30320000e+04  9.78900000e-09  0.00000000e+00
2.23888080e-03  8.27542493e+00  1.85280000e-01  3.27230000e+04  1.05000000e-08  0.00000000e+00
2.26126950e-03  8.27191020e+00  1.85380000e-01  3.24160000e+04  1.12500000e-08  0.00000000e+00
2.28388220e-03  8.26827362e+00  1.85480000e-01  3.21130000e+04  1.20600000e-08  0.00000000e+00
2.30672100e-03  8.26451229e+00  1.85580000e-01  3.18130000e+04  1.29200000e-08  0.00000000e+00
2.32978820e-03  8.26062317e+00  1.85690000e-01  3.15160000e+04  1.38400000e-08  0.00000000e+00
2.35308610e-03  8.25660313e+00  1.85800000e-01  3.12220000e+04  1.48300000e-08  0.00000000e+00
2.37661690e-03  8.25244891e+00  1.85900000e-01  3.09310000e+04  1.58900000e-08  0.00000000e+00
2.40038310e-03  8.24815710e+00  1.86010000e-01  3.06420000e+04  1.70200000e-08  0.00000000e+00
2.42438690e-03  8.24372419e+00  1.86130000e-01  3.03570000e+04  1.82200000e-08  0.00000000e+00
2.44863070e-03  8.23914651e+00  1.86240000e-01  3.00750000e+04  1.95100000e-08  0.00000000e+00
2.47311700e-03  8.23442025e+00  1.86350000e-01  2.97950000e+04  2.08900000e-08  0.00000000e+00
2.49784810e-03  8.22954144e+00  1.86470000e-01  2.95190000e+04  2.23600000e-08  0.00000000e+00
2.52282660e-03  8.22450598e+00  1.86590000e-01  2.92450000e+04  2.39300000e-08  0.00000000e+00
2.54805480e-03  8.21930958e+00  1.86710000e-01  2.89740000e+04  2.56100000e-08  0.00000000e+00
2.57353540e-03  8.21394777e+00  1.86830000e-01  2.87060000e+04  2.74000000e-08  0.00000000e+00
2.59927070e-03  8.20841590e+00  1.86950000e-01  2.84410000e+04  2.93100000e-08  0.00000000e+00
2.62526340e-03  8.20270916e+00  1.87080000e-01  2.81780000e+04  3.13500000e-08  0.00000000e+00
2.65151600e-03  8.19682248e+00  1.87210000e-01  2.79180000e+04  3.35300000e-08  0.00000000e+00
2.67803110e-03  8.19075063e+00  1.87340000e-01  2.76610000e+04  3.58600000e-08  0.00000000e+00
2.70481140e-03  8.18448813e+00  1.87470000e-01  2.74060000e+04  3.83400000e-08  0.00000000e+00
2.73185950e-03  8.17802925e+00  1.87610000e-01  2.71550000e+04  4.09900000e-08  0.00000000e+00
2.75917810e-03  8.17136804e+00  1.87740000e-01  2.69050000e+04  4.38200000e-08  0.00000000e+00
2.78676980e-03  8.16449826e+00  1.87880000e-01  2.66590000e+04  4.68300000e-08  0.00000000e+00
2.81463750e-03  8.15741340e+00  1.88020000e-01  2.64150000e+04  5.00400000e-08  0.00000000e+00
2.84278380e-03  8.15010665e+00  1.88170000e-01  2.61730000e+04  5.34700000e-08  0.00000000e+00
2.87121160e-03  8.14257087e+00  1.88310000e-01  2.59340000e+04  5.71200000e-08  0.00000000e+00
2.89992370e-03  8.13479862e+00  1.88460000e-01  2.56980000e+04  6.10200000e-08  0.00000000e+00
2.92892290e-03  8.12678206e+00  1.88610000e-01  2.54640000e+04  6.51700000e-08  0.00000000e+00
2.95821210e-03  8.11851299e+00  1.88770000e-01  2.52320000e+04  6.95900000e-08  0.00000000e+00
2.98779420e-03  8.10998280e+00  1.88930000e-01  2.50040000e+04  7.43000000e-08  0.00000000e+00
3.01767220e-03  8.10118245e+00  1.89090000e-01  2.47770000e+04  7.93200000e-08  0.00000000e+00
3.04784880e-03  8.09210242e+00  1.89250000e-01  2.45530000e+04  8.46700000e-08  0.00000000e+00
3.07832730e-03  8.08273271e+00  1.89420000e-01  2.43320000e+04  9.03700000e-08  0.00000000e+00
3.10911050e-03  8.07306277e+00  1.89590000e-01  2.41120000e+04  9.64400000e-08  0.00000000e+00
3.14020160e-03  8.06308148e+00  1.89770000e-01  2.38960000e+04  1.02900000e-07  0.00000000e+00
3.17160360e-03  8.05277710e+00  1.89950000e-01  2.36810000e+04  1.09800000e-07  0.00000000e+00
3.20331960e-03  8.04213722e+00  1.90130000e-01  2.34700000e+04  1.17100000e-07  0.00000000e+00
3.23535280e-03  8.03114872e+00  1.90320000e-01  2.32600000e+04  1.24900000e-07  0.00000000e+00
3.26770630e-03  8.01979767e+00  1.90510000e-01  2.30530000e+04  1.33200000e-07  0.00000000e+00
3.30038330e-03  8.00806931e+00  1.90700000e-01  2.28480000e+04  1.42000000e-07  0.00000000e+00
3.33338710e-03  7.99594796e+00  1.90910000e-01  2.26460000e+04  1.51400000e-07  0.00000000e+00
3.36672100e-03  7.98341693e+00  1.91110000e-01  2.24460000e+04  1.61400000e-07  0.00000000e+00
3.40038810e-03  7.97045843e+00  1.91320000e-01  2.22480000e+04  1.72000000e-07  0.00000000e+00
3.43439200e-03  7.95705346e+00  1.91540000e-01  2.20530000e+04  1.83300000e-07  0.00000000e+00
3.46873590e-03  7.94318171e+00  1.91770000e-01  2.18600000e+04  1.95300000e-07  0.00000000e+00
3.50342320e-03  7.92882143e+00  1.92000000e-01  2.16700000e+04  2.08100000e-07  0.00000000e+00
3.53845740e-03  7.91394923e+00  1.92230000e-01  2.14820000e+04  2.21600000e-07  0.00000000e+00
3.57384190e-03  7.89853999e+00  1.92480000e-01  2.12960000e+04  2.36100000e-07  0.00000000e+00
3.60958030e-03  7.88256660e+00  1.92730000e-01  2.11130000e+04  2.51400000e-07  0.00000000e+00
3.64567610e-03  7.86599975e+00  1.92990000e-01  2.09320000e+04  2.67700000e-07  0.00000000e+00
3.68213280e-03  7.84880771e+00  1.93260000e-01  2.07540000e+04  2.85000000e-07  0.00000000e+00
3.71895410e-03  7.83095596e+00  1.93540000e-01  2.05780000e+04  3.03300000e-07  0.00000000e+00
3.75614360e-03  7.81240692e+00  1.93830000e-01  2.04050000e+04  3.22900000e-07  0.00000000e+00
3.79370500e-03  7.79311949e+00  1.94140000e-01  2.02350000e+04  3.43600000e-07  0.00000000e+00
3.83164200e-03  7.77304860e+00  1.94450000e-01  2.00670000e+04  3.65600000e-07  0.00000000e+00
3.86995840e-03  7.75214465e+00  1.94780000e-01  1.99020000e+04  3.89000000e-07  0.00000000e+00
3.90865800e-03  7.73035281e+00  1.95130000e-01  1.97400000e+04  4.13800000e-07  0.00000000e+00
3.94774450e-03  7.70761227e+00  1.95490000e-01  1.95810000e+04  4.40100000e-07  0.00000000e+00
3.98722190e-03  7.68385523e+00  1.95870000e-01  1.94250000e+04  4.68000000e-07  0.00000000e+00
4.02709410e-03  7.65900575e+00  1.96270000e-01  1.92720000e+04  4.97700000e-07  0.00000000e+00
4.06736500e-03  7.63297832e+00  1.96700000e-01  1.91230000e+04  5.29100000e-07  0.00000000e+00
4.10803860e-03  7.60567608e+00  1.97150000e-01  1.89770000e+04  5.62500000e-07  0.00000000e+00
4.14911890e-03  7.57698861e+00  1.97640000e-01  1.88350000e+04  5.97900000e-07  0.00000000e+00
4.19061010e-03  7.54678914e+00  1.98160000e-01  1.86980000e+04  6.35400000e-07  0.00000000e+00
4.23251620e-03  7.51493098e+00  1.98720000e-01  1.85650000e+04  6.75200000e-07  0.00000000e+00
4.27484130e-03  7.48124288e+00  1.99330000e-01  1.84380000e+04  7.17400000e-07  0.00000000e+00
4.31758960e-03  7.44552304e+00  2.00000000e-01  1.83160000e+04  7.62100000e-07  0.00000000e+00
4.36076550e-03  7.40753088e+00  2.00730000e-01  1.82010000e+04  8.09500000e-07  0.00000000e+00
4.40437310e-03  7.36697621e+00  2.01540000e-01  1.80940000e+04  8.59700000e-07  0.00000000e+00
4.44841680e-03  7.32350368e+00  2.02460000e-01  1.79960000e+04  9.12900000e-07  0.00000000e+00
4.49290090e-03  7.27667112e+00  2.03500000e-01  1.79100000e+04  9.69300000e-07  0.00000000e+00
4.53782990e-03  7.22591743e+00  2.04700000e-01  1.78370000e+04  1.02900000e-06  0.00000000e+00
4.58320820e-03  7.17051419e+00  2.06110000e-01  1.77820000e+04  1.09200000e-06  0.00000000e+00
4.62904020e-03  7.10948917e+00  2.07800000e-01  1.77510000e+04  1.15900000e-06  0.00000000e+00
4.67533060e-03  7.04149999e+00  2.09890000e-01  1.77520000e+04  1.23000000e-06  0.00000000e+00
4.72208380e-03  6.96461261e+00  2.12560000e-01  1.78000000e+04  1.30500000e-06  0.00000000e+00
4.76930460e-03  6.87588187e+00  2.16140000e-01  1.79200000e+04  1.38500000e-06  0.00000000e+00
4.81699760e-03  6.77047629e+00  2.21260000e-01  1.81630000e+04  1.46900000e-06  0.00000000e+00
4.86516750e-03  6.63958155e+00  2.29380000e-01  1.86430000e+04  1.55800000e-06  0.00000000e+00
4.91381920e-03  6.46423952e+00  2.44590000e-01  1.96820000e+04  1.65200000e-06  0.00000000e+00
4.96295730e-03  6.18972774e+00  2.85220000e-01  2.27240000e+04  1.75200000e-06  0.00000000e+00
4.97201310e-03  6.11645989e+00  3.01500000e-01  2.39780000e+04  1.77100000e-06  0.00000000e+00
5.01258680e-03  5.56556214e+00  6.60050000e-01  5.20680000e+04  1.85700000e-06  0.00000000e+00
5.01840140e-03  5.39536528e+00  8.53300000e-01  6.72350000e+04  1.87000000e-06  0.00000000e+00
5.01842470e-03  5.78995694e+00  8.54130000e-01  6.73000000e+04  1.87000000e-06  0.00000000e+00
5.06271270e-03  6.07894475e+00  1.37740000e+00  1.07580000e+05  1.96900000e-06  0.00000000e+00
5.06481310e-03  6.09599811e+00  1.38090000e+00  1.07810000e+05  1.97400000e-06  0.00000000e+00
5.11333970e-03  6.35389307e+00  1.40800000e+00  1.08880000e+05  2.08700000e-06  0.00000000e+00
5.16447310e-03  6.48744843e+00  1.40140000e+00  1.07300000e+05  2.21200000e-06  0.00000000e+00
5.21611780e-03  6.55539516e+00  1.38720000e+00  1.05160000e+05  2.34400000e-06  0.00000000e+00
5.26827890e-03  6.57754125e+00  1.37150000e+00  1.02940000e+05  2.48300000e-06  0.00000000e+00
5.32096160e-03  6.55459992e+00  1.35800000e+00  1.00920000e+05  2.63000000e-06  0.00000000e+00
5.37417120e-03  6.46483011e+00  1.35520000e+00  9.97120000e+04  2.78600000e-06  0.00000000e+00
5.40023190e-03  6.37243918e+00  1.36880000e+00  1.00230000e+05  2.86500000e-06  0.00000000e+00
5.42791290e-03  6.18413092e+00  1.44430000e+00  1.05210000e+05  2.95100000e-06  0.00000000e+00
5.44661930e-03  5.39835381e+00  1.72030000e+00  1.24890000e+05  3.01000000e-06  0.00000000e+00
5.44664460e-03  6.65423575e+00  1.72090000e+00  1.24930000e+05  3.01000000e-06  0.00000000e+00
5.48219190e-03  6.38703976e+00  2.04130000e+00  1.47240000e+05  3.12500000e-06  0.00000000e+00
5.49303190e-03  6.46330218e+00  2.05200000e+00  1.47710000e+05  3.16000000e-06  0.00000000e+00
5.53701380e-03  6.66695105e+00  2.04880000e+00  1.46310000e+05  3.30800000e-06  0.00000000e+00
5.59238390e-03  6.81600559e+00  2.02020000e+00  1.42840000e+05  3.50300000e-06  0.00000000e+00
5.64830770e-03  6.91315292e+00  1.98790000e+00  1.39170000e+05  3.70700000e-06  0.00000000e+00
5.70479070e-03  6.98090576e+00  1.95640000e+00  1.35610000e+05  3.92400000e-06  0.00000000e+00
5.76183850e-03  7.02901336e+00  1.92690000e+00  1.32240000e+05  4.15200000e-06  0.00000000e+00
5.81945690e-03  7.06265794e+00  1.89970000e+00  1.29080000e+05  4.39400000e-06  0.00000000e+00
5.87765140e-03  7.08491887e+00  1.87500000e+00  1.26140000e+05  4.64800000e-06  0.00000000e+00
5.93642780e-03  7.09770772e+00  1.85270000e+00  1.23410000e+05  4.91700000e-06  0.00000000e+00
5.99579210e-03  7.10211689e+00  1.83290000e+00  1.20880000e+05  5.20100000e-06  0.00000000e+00
6.05574990e-03  7.09881626e+00  1.81650000e+00  1.18610000e+05  5.50000000e-06  0.00000000e+00
6.11630740e-03  7.08943553e+00  1.80450000e+00  1.16660000e+05  5.81600000e-06  0.00000000e+00
6.17747040e-03  7.07527642e+00  1.79660000e+00  1.15000000e+05  6.14900000e-06  0.00000000e+00
6.23924500e-03  7.05720254e+00  1.79260000e+00  1.13600000e+05  6.50000000e-06  0.00000000e+00
6.30163740e-03  7.03584458e+00  1.79220000e+00  1.12460000e+05  6.87000000e-06  0.00000000e+00
6.36465370e-03  7.01168648e+00  1.79530000e+00  1.11530000e+05  7.26100000e-06  0.00000000e+00
6.42830020e-03  6.98511135e+00  1.80170000e+00  1.10820000e+05  7.67300000e-06  0.00000000e+00
6.49258320e-03  6.95642946e+00  1.81130000e+00  1.10310000e+05  8.10700000e-06  0.00000000e+00
6.55750890e-03  6.92589691e+00  1.82400000e+00  1.09990000e+05  8.56500000e-06  0.00000000e+00
6.62308400e-03  6.89372872e+00  1.83980000e+00  1.09840000e+05  9.04700000e-06  0.00000000e+00
