#  Sb:    Z = 51;   Atomic weight = 121.7500 g/mol ;    nominal density:   [INLINE] = 6.6790E+00 g/cm3
#         a(barns/atom) = (cm2/g)    2.02171E+02
#         E(eV) (cm2/g) = f2(e/atom)    3.45629E+05
#         14 edges. Edge energies (keV):
# K      3.04912E+01  L I    4.69830E+00  L II   4.38040E+00  L III  4.13220E+00
# M I    9.43700E-01  M II   8.11900E-01  M III  7.65600E-01  M IV   5.36900E-01
# M V    5.27500E-01  N I    1.52000E-01  N II   9.84000E-02  N III  9.84000E-02
# N IV   3.14000E-02  N V    3.14000E-02
#         Relativistic correction estimate frel (H82,3/5CL) = -5.5841E-01, -3.4500E-01 e/atom
#         Nuclear Thomson correction fNT = -1.1720E-02 e/atom
#    _________________________________________________________________________________________________________
#  Form Factors, Attenuation and Scattering Cross-sections
#  Z=51, E = 0.001 - 1000 keV
#                                                             Attenuation
#    E         f1            f2                     [INLINE] (coh+inc) Coefficient    K       wavelength
#    keV       e/atom       e/atom      cm2/g       cm2/g      cm2/g          cm2/g        nm
1.01000000e-03  6.07429446e+00  3.68470000e-02  1.26090000e+04  1.54400000e-11  0.00000000e+00
1.02010000e-03  6.08176639e+00  3.68490000e-02  1.24850000e+04  1.67600000e-11  0.00000000e+00
1.03030100e-03  6.08626552e+00  3.68520000e-02  1.23630000e+04  1.82000000e-11  0.00000000e+00
1.04060400e-03  6.08944535e+00  3.68550000e-02  1.22410000e+04  1.97500000e-11  0.00000000e+00
1.05101010e-03  6.09183860e+00  3.68570000e-02  1.21210000e+04  2.14300000e-11  0.00000000e+00
1.06152010e-03  6.09380070e+00  3.68600000e-02  1.20020000e+04  2.32500000e-11  0.00000000e+00
1.07213530e-03  6.09548986e+00  3.68630000e-02  1.18840000e+04  2.52300000e-11  0.00000000e+00
1.08285670e-03  6.09723443e+00  3.68660000e-02  1.17670000e+04  2.73600000e-11  0.00000000e+00
1.09368520e-03  6.09850391e+00  3.68690000e-02  1.16510000e+04  2.96800000e-11  0.00000000e+00
1.10462210e-03  6.09965147e+00  3.68720000e-02  1.15370000e+04  3.21800000e-11  0.00000000e+00
1.11566830e-03  6.10082837e+00  3.68740000e-02  1.14240000e+04  3.48900000e-11  0.00000000e+00
1.12682500e-03  6.10177110e+00  3.68770000e-02  1.13110000e+04  3.78300000e-11  0.00000000e+00
1.13809320e-03  6.10264320e+00  3.68800000e-02  1.12000000e+04  4.10000000e-11  0.00000000e+00
1.14947410e-03  6.10345380e+00  3.68830000e-02  1.10900000e+04  4.44300000e-11  0.00000000e+00
1.16096880e-03  6.10421026e+00  3.68860000e-02  1.09810000e+04  4.81500000e-11  0.00000000e+00
1.17257850e-03  6.10491862e+00  3.68890000e-02  1.08740000e+04  5.21700000e-11  0.00000000e+00
1.18430430e-03  6.10558388e+00  3.68930000e-02  1.07670000e+04  5.65100000e-11  0.00000000e+00
1.19614730e-03  6.10621026e+00  3.68960000e-02  1.06610000e+04  6.12100000e-11  0.00000000e+00
1.20810880e-03  6.10680130e+00  3.68990000e-02  1.05560000e+04  6.62900000e-11  0.00000000e+00
1.22018990e-03  6.10736006e+00  3.69020000e-02  1.04530000e+04  7.17800000e-11  0.00000000e+00
1.23239180e-03  6.10788913e+00  3.69050000e-02  1.03500000e+04  7.77100000e-11  0.00000000e+00
1.24471570e-03  6.10839079e+00  3.69080000e-02  1.02490000e+04  8.41200000e-11  0.00000000e+00
1.25716280e-03  6.10886702e+00  3.69120000e-02  1.01480000e+04  9.10500000e-11  0.00000000e+00
1.26973440e-03  6.10931953e+00  3.69150000e-02  1.00480000e+04  9.85300000e-11  0.00000000e+00
1.28243180e-03  6.10974985e+00  3.69180000e-02  9.94990000e+03  1.06600000e-10  0.00000000e+00
1.29525610e-03  6.11015932e+00  3.69220000e-02  9.85230000e+03  1.15300000e-10  0.00000000e+00
1.30820860e-03  6.11054913e+00  3.69250000e-02  9.75570000e+03  1.24800000e-10  0.00000000e+00
1.32129070e-03  6.11092034e+00  3.69290000e-02  9.66000000e+03  1.34900000e-10  0.00000000e+00
1.33450360e-03  6.11127390e+00  3.69320000e-02  9.56520000e+03  1.45900000e-10  0.00000000e+00
1.34784860e-03  6.11161065e+00  3.69360000e-02  9.47140000e+03  1.57800000e-10  0.00000000e+00
1.36132710e-03  6.11193135e+00  3.69390000e-02  9.37860000e+03  1.70600000e-10  0.00000000e+00
1.37494030e-03  6.11223667e+00  3.69430000e-02  9.28660000e+03  1.84400000e-10  0.00000000e+00
1.38868970e-03  6.11252724e+00  3.69470000e-02  9.19560000e+03  1.99200000e-10  0.00000000e+00
1.40257660e-03  6.11280360e+00  3.69500000e-02  9.10540000e+03  2.15300000e-10  0.00000000e+00
1.41660240e-03  6.11306626e+00  3.69540000e-02  9.01620000e+03  2.32600000e-10  0.00000000e+00
1.43076840e-03  6.11331565e+00  3.69580000e-02  8.92780000e+03  2.51300000e-10  0.00000000e+00
1.44507600e-03  6.11355219e+00  3.69610000e-02  8.84030000e+03  2.71400000e-10  0.00000000e+00
1.45952680e-03  6.11377623e+00  3.69650000e-02  8.75370000e+03  2.93100000e-10  0.00000000e+00
1.47412200e-03  6.11398812e+00  3.69690000e-02  8.66800000e+03  3.16500000e-10  0.00000000e+00
1.48886320e-03  6.11418814e+00  3.69730000e-02  8.58300000e+03  3.41700000e-10  0.00000000e+00
1.50375190e-03  6.11437656e+00  3.69770000e-02  8.49900000e+03  3.68900000e-10  0.00000000e+00
1.51878940e-03  6.11455362e+00  3.69810000e-02  8.41570000e+03  3.98200000e-10  0.00000000e+00
1.53397720e-03  6.11471955e+00  3.69850000e-02  8.33330000e+03  4.29700000e-10  0.00000000e+00
1.54931700e-03  6.11487452e+00  3.69890000e-02  8.25170000e+03  4.63700000e-10  0.00000000e+00
1.56481020e-03  6.11501872e+00  3.69930000e-02  8.17090000e+03  5.00200000e-10  0.00000000e+00
1.58045820e-03  6.11515229e+00  3.69970000e-02  8.09090000e+03  5.39600000e-10  0.00000000e+00
1.59626280e-03  6.11527536e+00  3.70020000e-02  8.01170000e+03  5.82000000e-10  0.00000000e+00
1.61222540e-03  6.11538806e+00  3.70060000e-02  7.93330000e+03  6.27600000e-10  0.00000000e+00
1.62834770e-03  6.11549048e+00  3.70100000e-02  7.85570000e+03  6.76700000e-10  0.00000000e+00
1.64463110e-03  6.11558271e+00  3.70150000e-02  7.77880000e+03  7.29500000e-10  0.00000000e+00
1.66107740e-03  6.11566482e+00  3.70190000e-02  7.70270000e+03  7.86400000e-10  0.00000000e+00
1.67768820e-03  6.11573687e+00  3.70230000e-02  7.62740000e+03  8.47500000e-10  0.00000000e+00
1.69446500e-03  6.11579891e+00  3.70280000e-02  7.55280000e+03  9.13300000e-10  0.00000000e+00
1.71140970e-03  6.11585098e+00  3.70320000e-02  7.47890000e+03  9.84100000e-10  0.00000000e+00
1.72852380e-03  6.11589309e+00  3.70370000e-02  7.40570000e+03  1.06000000e-09  0.00000000e+00
1.74580900e-03  6.11592526e+00  3.70410000e-02  7.33330000e+03  1.14200000e-09  0.00000000e+00
1.76326710e-03  6.11594749e+00  3.70460000e-02  7.26160000e+03  1.23000000e-09  0.00000000e+00
1.78089970e-03  6.11595978e+00  3.70510000e-02  7.19070000e+03  1.32400000e-09  0.00000000e+00
1.79870870e-03  6.11596212e+00  3.70560000e-02  7.12040000e+03  1.42600000e-09  0.00000000e+00
1.81669580e-03  6.11595448e+00  3.70600000e-02  7.05080000e+03  1.53500000e-09  0.00000000e+00
1.83486270e-03  6.11593682e+00  3.70650000e-02  6.98190000e+03  1.65200000e-09  0.00000000e+00
1.85321130e-03  6.11590911e+00  3.70700000e-02  6.91370000e+03  1.77800000e-09  0.00000000e+00
1.87174340e-03  6.11587131e+00  3.70750000e-02  6.84610000e+03  1.91300000e-09  0.00000000e+00
1.89046080e-03  6.11582334e+00  3.70800000e-02  6.77930000e+03  2.05800000e-09  0.00000000e+00
1.90936540e-03  6.11576516e+00  3.70850000e-02  6.71310000e+03  2.21400000e-09  0.00000000e+00
1.92845900e-03  6.11569669e+00  3.70900000e-02  6.64750000e+03  2.38200000e-09  0.00000000e+00
1.94774360e-03  6.11561786e+00  3.70950000e-02  6.58260000e+03  2.56100000e-09  0.00000000e+00
1.96722100e-03  6.11552857e+00  3.71010000e-02  6.51840000e+03  2.75400000e-09  0.00000000e+00
1.98689320e-03  6.11542874e+00  3.71060000e-02  6.45470000e+03  2.96100000e-09  0.00000000e+00
2.00676210e-03  6.11531827e+00  3.71110000e-02  6.39180000e+03  3.18300000e-09  0.00000000e+00
2.02682970e-03  6.11519706e+00  3.71170000e-02  6.32940000e+03  3.42100000e-09  0.00000000e+00
2.04709800e-03  6.11506500e+00  3.71220000e-02  6.26760000e+03  3.67700000e-09  0.00000000e+00
2.06756900e-03  6.11492197e+00  3.71280000e-02  6.20650000e+03  3.95000000e-09  0.00000000e+00
2.08824460e-03  6.11476784e+00  3.71330000e-02  6.14600000e+03  4.24400000e-09  0.00000000e+00
2.10912710e-03  6.11460250e+00  3.71390000e-02  6.08600000e+03  4.55900000e-09  0.00000000e+00
2.13021830e-03  6.11442580e+00  3.71440000e-02  6.02670000e+03  4.89700000e-09  0.00000000e+00
2.15152050e-03  6.11423760e+00  3.71500000e-02  5.96800000e+03  5.25800000e-09  0.00000000e+00
2.17303570e-03  6.11403775e+00  3.71560000e-02  5.90980000e+03  5.64600000e-09  0.00000000e+00
2.19476600e-03  6.11382610e+00  3.71620000e-02  5.85220000e+03  6.06200000e-09  0.00000000e+00
2.21671360e-03  6.11360250e+00  3.71680000e-02  5.79520000e+03  6.50700000e-09  0.00000000e+00
2.23888080e-03  6.11336677e+00  3.71740000e-02  5.73870000e+03  6.98300000e-09  0.00000000e+00
2.26126950e-03  6.11311875e+00  3.71800000e-02  5.68280000e+03  7.49400000e-09  0.00000000e+00
2.28388220e-03  6.11285826e+00  3.71860000e-02  5.62750000e+03  8.04100000e-09  0.00000000e+00
2.30672100e-03  6.11258510e+00  3.71920000e-02  5.57270000e+03  8.62600000e-09  0.00000000e+00
2.32978820e-03  6.11229911e+00  3.71980000e-02  5.51840000e+03  9.25300000e-09  0.00000000e+00
2.35308610e-03  6.11200007e+00  3.72040000e-02  5.46470000e+03  9.92400000e-09  0.00000000e+00
2.37661690e-03  6.11168778e+00  3.72110000e-02  5.41150000e+03  1.06400000e-08  0.00000000e+00
2.40038310e-03  6.11136205e+00  3.72170000e-02  5.35890000e+03  1.14100000e-08  0.00000000e+00
2.42438690e-03  6.11102265e+00  3.72240000e-02  5.30670000e+03  1.22300000e-08  0.00000000e+00
2.44863070e-03  6.11066936e+00  3.72300000e-02  5.25510000e+03  1.31100000e-08  0.00000000e+00
2.47311700e-03  6.11030196e+00  3.72370000e-02  5.20400000e+03  1.40500000e-08  0.00000000e+00
2.49784810e-03  6.10992021e+00  3.72440000e-02  5.15340000e+03  1.50600000e-08  0.00000000e+00
2.52282660e-03  6.10952388e+00  3.72500000e-02  5.10330000e+03  1.61300000e-08  0.00000000e+00
2.54805480e-03  6.10911272e+00  3.72570000e-02  5.05370000e+03  1.72800000e-08  0.00000000e+00
2.57353540e-03  6.10868646e+00  3.72640000e-02  5.00460000e+03  1.85100000e-08  0.00000000e+00
2.59927070e-03  6.10824487e+00  3.72710000e-02  4.95600000e+03  1.98300000e-08  0.00000000e+00
2.62526340e-03  6.10778766e+00  3.72780000e-02  4.90790000e+03  2.12300000e-08  0.00000000e+00
2.65151600e-03  6.10731457e+00  3.72850000e-02  4.86020000e+03  2.27300000e-08  0.00000000e+00
2.67803110e-03  6.10682531e+00  3.72930000e-02  4.81300000e+03  2.43400000e-08  0.00000000e+00
2.70481140e-03  6.10631960e+00  3.73000000e-02  4.76630000e+03  2.60500000e-08  0.00000000e+00
2.73185950e-03  6.10579715e+00  3.73070000e-02  4.72000000e+03  2.78800000e-08  0.00000000e+00
2.75917810e-03  6.10525764e+00  3.73150000e-02  4.67420000e+03  2.98300000e-08  0.00000000e+00
2.78676980e-03  6.10470079e+00  3.73220000e-02  4.62890000e+03  3.19200000e-08  0.00000000e+00
2.81463750e-03  6.10412625e+00  3.73300000e-02  4.58400000e+03  3.41400000e-08  0.00000000e+00
2.84278380e-03  6.10353372e+00  3.73370000e-02  4.53950000e+03  3.65200000e-08  0.00000000e+00
2.87121160e-03  6.10292287e+00  3.73450000e-02  4.49550000e+03  3.90600000e-08  0.00000000e+00
2.89992370e-03  6.10229334e+00  3.73530000e-02  4.45190000e+03  4.17700000e-08  0.00000000e+00
2.92892290e-03  6.10164480e+00  3.73610000e-02  4.40880000e+03  4.46600000e-08  0.00000000e+00
2.95821210e-03  6.10097689e+00  3.73690000e-02  4.36610000e+03  4.77400000e-08  0.00000000e+00
2.98779420e-03  6.10028924e+00  3.73770000e-02  4.32380000e+03  5.10300000e-08  0.00000000e+00
3.01767220e-03  6.09958148e+00  3.73850000e-02  4.28190000e+03  5.45300000e-08  0.00000000e+00
3.04784880e-03  6.09885323e+00  3.73930000e-02  4.24040000e+03  5.82700000e-08  0.00000000e+00
3.07832730e-03  6.09810411e+00  3.74020000e-02  4.19940000e+03  6.22600000e-08  0.00000000e+00
3.10911050e-03  6.09733371e+00  3.74100000e-02  4.15880000e+03  6.65100000e-08  0.00000000e+00
3.14020160e-03  6.09654162e+00  3.74190000e-02  4.11850000e+03  7.10400000e-08  0.00000000e+00
3.17160360e-03  6.09572743e+00  3.74270000e-02  4.07870000e+03  7.58700000e-08  0.00000000e+00
3.20331960e-03  6.09489071e+00  3.74360000e-02  4.03920000e+03  8.10100000e-08  0.00000000e+00
3.23535280e-03  6.09403103e+00  3.74450000e-02  4.00020000e+03  8.65000000e-08  0.00000000e+00
3.26770630e-03  6.09314793e+00  3.74540000e-02  3.96150000e+03  9.23400000e-08  0.00000000e+00
3.30038330e-03  6.09224097e+00  3.74630000e-02  3.92320000e+03  9.85600000e-08  0.00000000e+00
3.33338710e-03  6.09130968e+00  3.74720000e-02  3.88530000e+03  1.05200000e-07  0.00000000e+00
3.36672100e-03  6.09035359e+00  3.74810000e-02  3.84780000e+03  1.12200000e-07  0.00000000e+00
3.40038810e-03  6.08937219e+00  3.74900000e-02  3.81070000e+03  1.19800000e-07  0.00000000e+00
3.43439200e-03  6.08836501e+00  3.75000000e-02  3.77390000e+03  1.27800000e-07  0.00000000e+00
3.46873590e-03  6.08733153e+00  3.75090000e-02  3.73750000e+03  1.36300000e-07  0.00000000e+00
3.50342320e-03  6.08627122e+00  3.75190000e-02  3.70140000e+03  1.45300000e-07  0.00000000e+00
3.53845740e-03  6.08518356e+00  3.75280000e-02  3.66570000e+03  1.55000000e-07  0.00000000e+00
3.57384190e-03  6.08406802e+00  3.75380000e-02  3.63040000e+03  1.65200000e-07  0.00000000e+00
3.60958030e-03  6.08292402e+00  3.75480000e-02  3.59540000e+03  1.76100000e-07  0.00000000e+00
3.64567610e-03  6.08175100e+00  3.75580000e-02  3.56070000e+03  1.87800000e-07  0.00000000e+00
3.68213280e-03  6.08054839e+00  3.75680000e-02  3.52640000e+03  2.00100000e-07  0.00000000e+00
3.71895410e-03  6.07931560e+00  3.75780000e-02  3.49240000e+03  2.13200000e-07  0.00000000e+00
3.75614360e-03  6.07805201e+00  3.75890000e-02  3.45880000e+03  2.27200000e-07  0.00000000e+00
3.79370500e-03  6.07675701e+00  3.75990000e-02  3.42550000e+03  2.42000000e-07  0.00000000e+00
3.83164200e-03  6.07542997e+00  3.76100000e-02  3.39250000e+03  2.57800000e-07  0.00000000e+00
3.86995840e-03  6.07407024e+00  3.76200000e-02  3.35990000e+03  2.74600000e-07  0.00000000e+00
3.90865800e-03  6.07267716e+00  3.76310000e-02  3.32760000e+03  2.92400000e-07  0.00000000e+00
3.94774450e-03  6.07125006e+00  3.76420000e-02  3.29560000e+03  3.11300000e-07  0.00000000e+00
3.98722190e-03  6.06978825e+00  3.76530000e-02  3.26390000e+03  3.31400000e-07  0.00000000e+00
4.02709410e-03  6.06829103e+00  3.76640000e-02  3.23260000e+03  3.52800000e-07  0.00000000e+00
4.06736500e-03  6.06675768e+00  3.76760000e-02  3.20150000e+03  3.75400000e-07  0.00000000e+00
4.10803860e-03  6.06518746e+00  3.76870000e-02  3.17080000e+03  3.99500000e-07  0.00000000e+00
4.14911890e-03  6.06357962e+00  3.76980000e-02  3.14030000e+03  4.25100000e-07  0.00000000e+00
4.19061010e-03  6.06193339e+00  3.77100000e-02  3.11020000e+03  4.52300000e-07  0.00000000e+00
4.23251620e-03  6.06024799e+00  3.77220000e-02  3.08040000e+03  4.81100000e-07  0.00000000e+00
4.27484130e-03  6.05852263e+00  3.77340000e-02  3.05080000e+03  5.11600000e-07  0.00000000e+00
4.31758960e-03  6.05675647e+00  3.77460000e-02  3.02160000e+03  5.44100000e-07  0.00000000e+00
4.36076550e-03  6.05494869e+00  3.77580000e-02  2.99260000e+03  5.78500000e-07  0.00000000e+00
4.40437310e-03  6.05309843e+00  3.77700000e-02  2.96400000e+03  6.15100000e-07  0.00000000e+00
4.44841680e-03  6.05120481e+00  3.77830000e-02  2.93560000e+03  6.53800000e-07  0.00000000e+00
4.49290090e-03  6.04926695e+00  3.77950000e-02  2.90750000e+03  6.94900000e-07  0.00000000e+00
4.53782990e-03  6.04728393e+00  3.78080000e-02  2.87970000e+03  7.38500000e-07  0.00000000e+00
4.58320820e-03  6.04525481e+00  3.78210000e-02  2.85210000e+03  7.84700000e-07  0.00000000e+00
4.62904020e-03  6.04317866e+00  3.78340000e-02  2.82490000e+03  8.33600000e-07  0.00000000e+00
4.67533060e-03  6.04105449e+00  3.78470000e-02  2.79790000e+03  8.85500000e-07  0.00000000e+00
4.72208380e-03  6.03888130e+00  3.78600000e-02  2.77110000e+03  9.40600000e-07  0.00000000e+00
4.76930460e-03  6.03665809e+00  3.78730000e-02  2.74470000e+03  9.98900000e-07  0.00000000e+00
4.81699760e-03  6.03438381e+00  3.78870000e-02  2.71850000e+03  1.06100000e-06  0.00000000e+00
4.86516750e-03  6.03205740e+00  3.79010000e-02  2.69250000e+03  1.12600000e-06  0.00000000e+00
4.91381920e-03  6.02967778e+00  3.79140000e-02  2.66680000e+03  1.19500000e-06  0.00000000e+00
4.96295730e-03  6.02724383e+00  3.79280000e-02  2.64140000e+03  1.26900000e-06  0.00000000e+00
5.01258680e-03  6.02475442e+00  3.79430000e-02  2.61620000e+03  1.34700000e-06  0.00000000e+00
5.06271270e-03  6.02220840e+00  3.79570000e-02  2.59130000e+03  1.42900000e-06  0.00000000e+00
5.11333970e-03  6.01960457e+00  3.79710000e-02  2.56660000e+03  1.51600000e-06  0.00000000e+00
5.16447310e-03  6.01694173e+00  3.79860000e-02  2.54220000e+03  1.60800000e-06  0.00000000e+00
5.21611780e-03  6.01421863e+00  3.80010000e-02  2.51800000e+03  1.70600000e-06  0.00000000e+00
5.26827890e-03  6.01143402e+00  3.80160000e-02  2.49400000e+03  1.80900000e-06  0.00000000e+00
5.32096160e-03  6.00858659e+00  3.80310000e-02  2.47030000e+03  1.91800000e-06  0.00000000e+00
5.37417120e-03  6.00567504e+00  3.80460000e-02  2.44690000e+03  2.03400000e-06  0.00000000e+00
5.42791290e-03  6.00269799e+00  3.80620000e-02  2.42360000e+03  2.15600000e-06  0.00000000e+00
5.48219190e-03  5.99965407e+00  3.80770000e-02  2.40060000e+03  2.28600000e-06  0.00000000e+00
5.53701380e-03  5.99654187e+00  3.80930000e-02  2.37780000e+03  2.42200000e-06  0.00000000e+00
5.59238390e-03  5.99335994e+00  3.81090000e-02  2.35530000e+03  2.56700000e-06  0.00000000e+00
5.64830770e-03  5.99010680e+00  3.81250000e-02  2.33290000e+03  2.72000000e-06  0.00000000e+00
5.70479070e-03  5.98678094e+00  3.81410000e-02  2.31080000e+03  2.88200000e-06  0.00000000e+00
5.76183850e-03  5.98338082e+00  3.81580000e-02  2.28890000e+03  3.05200000e-06  0.00000000e+00
5.81945690e-03  5.97990485e+00  3.81750000e-02  2.26730000e+03  3.23300000e-06  0.00000000e+00
5.87765140e-03  5.97635141e+00  3.81920000e-02  2.24580000e+03  3.42400000e-06  0.00000000e+00
5.93642780e-03  5.97271886e+00  3.82090000e-02  2.22460000e+03  3.62500000e-06  0.00000000e+00
5.99579210e-03  5.96900550e+00  3.82260000e-02  2.20350000e+03  3.83800000e-06  0.00000000e+00
6.05574990e-03  5.96520960e+00  3.82430000e-02  2.18270000e+03  4.06300000e-06  0.00000000e+00
6.11630740e-03  5.96132940e+00  3.82610000e-02  2.16210000e+03  4.30000000e-06  0.00000000e+00
6.17747040e-03  5.95736307e+00  3.82790000e-02  2.14170000e+03  4.55100000e-06  0.00000000e+00
6.23924500e-03  5.95330877e+00  3.82970000e-02  2.12150000e+03  4.81600000e-06  0.00000000e+00
6.30163740e-03  5.94916461e+00  3.83150000e-02  2.10150000e+03  5.09500000e-06  0.00000000e+00
6.36465370e-03  5.94492865e+00  3.83340000e-02  2.08170000e+03  5.39000000e-06  0.00000000e+00
6.42830020e-03  5.94059889e+00  3.83520000e-02  2.06210000e+03  5.70200000e-06  0.00000000e+00
6.49258320e-03  5.93617332e+00  3.83710000e-02  2.04270000e+03  6.03000000e-06  0.00000000e+00
6.55750890e-03  5.93164986e+00  3.83900000e-02  2.02350000e+03  6.37600000e-06  0.00000000e+00
6.62308400e-03  5.92702638e+00  3.84100000e-02  2.00440000e+03  6.74200000e-06  0.00000000e+00
6.68931470e-03  5.92230070e+00  3.84290000e-02  1.98560000e+03  7.12800000e-06  0.00000000e+00
6.75620780e-03  5.91747060e+00  3.84490000e-02  1.96700000e+03  7.53400000e-06  0.00000000e+00
6.82376980e-03  5.91253381e+00  3.84690000e-02  1.94850000e+03  7.96300000e-06  0.00000000e+00
6.89200750e-03  5.90748798e+00  3.84890000e-02  1.93020000e+03  8.41500000e-06  0.00000000e+00
6.96092750e-03  5.90233073e+00  3.85100000e-02  1.91210000e+03  8.89200000e-06  0.00000000e+00
7.03053670e-03  5.89705962e+00  3.85310000e-02  1.89420000e+03  9.39400000e-06  0.00000000e+00
7.10084200e-03  5.89167214e+00  3.85520000e-02  1.87650000e+03  9.92300000e-06  0.00000000e+00
7.17185030e-03  5.88616574e+00  3.85730000e-02  1.85890000e+03  1.04800000e-05  0.00000000e+00
