#  Te:    Z = 52;   Atomic weight = 127.6000 g/mol ;    nominal density:   [INLINE] = 6.2300E+00 g/cm3
#         a(barns/atom) = (cm2/g)    2.11885E+02
#         E(eV) (cm2/g) = f2(e/atom)    3.29783E+05
#         14 edges. Edge energies (keV):
# K      3.18138E+01  L I    4.93920E+00  L II   4.61200E+00  L III  4.34140E+00
# M I    1.00600E+00  M II   8.69700E-01  M III  8.18700E-01  M IV   5.82500E-01
# M V    5.72100E-01  N I    1.68300E-01  N II   1.10200E-01  N III  1.10200E-01
# N IV   3.98000E-02  N V    3.98000E-02
#         Relativistic correction estimate frel (H82,3/5CL) = -5.8644E-01, -3.6120E-01 e/atom
#         Nuclear Thomson correction fNT = -1.1625E-02 e/atom
#    _________________________________________________________________________________________________________
#  Form Factors, Attenuation and Scattering Cross-sections
#  Z=52, E = 0.001 - 1000 keV
#                                                             Attenuation
#    E         f1            f2                     [INLINE] (coh+inc) Coefficient    K       wavelength
#    keV       e/atom       e/atom      cm2/g       cm2/g      cm2/g          cm2/g        nm
1.01000000e-03  5.35377359e+00  2.53710000e-02  8.28410000e+03  1.87300000e-11  0.00000000e+00
1.02010000e-03  5.35850440e+00  2.53720000e-02  8.20250000e+03  2.03200000e-11  0.00000000e+00
1.03030100e-03  5.36144392e+00  2.53740000e-02  8.12170000e+03  2.20500000e-11  0.00000000e+00
1.04060400e-03  5.36372821e+00  2.53750000e-02  8.04170000e+03  2.39200000e-11  0.00000000e+00
1.05101010e-03  5.36541683e+00  2.53760000e-02  7.96250000e+03  2.59400000e-11  0.00000000e+00
1.06152010e-03  5.36670761e+00  2.53780000e-02  7.88410000e+03  2.81400000e-11  0.00000000e+00
1.07213530e-03  5.36782740e+00  2.53790000e-02  7.80650000e+03  3.05100000e-11  0.00000000e+00
1.08285670e-03  5.36881490e+00  2.53800000e-02  7.72960000e+03  3.30800000e-11  0.00000000e+00
1.09368520e-03  5.36994658e+00  2.53820000e-02  7.65350000e+03  3.58600000e-11  0.00000000e+00
1.10462210e-03  5.37070089e+00  2.53830000e-02  7.57810000e+03  3.88700000e-11  0.00000000e+00
1.11566830e-03  5.37139212e+00  2.53850000e-02  7.50350000e+03  4.21200000e-11  0.00000000e+00
1.12682500e-03  5.37215860e+00  2.53860000e-02  7.42960000e+03  4.56400000e-11  0.00000000e+00
1.13809320e-03  5.37273263e+00  2.53880000e-02  7.35650000e+03  4.94400000e-11  0.00000000e+00
1.14947410e-03  5.37326825e+00  2.53890000e-02  7.28410000e+03  5.35600000e-11  0.00000000e+00
1.16096880e-03  5.37376975e+00  2.53900000e-02  7.21240000e+03  5.80100000e-11  0.00000000e+00
1.17257850e-03  5.37424065e+00  2.53920000e-02  7.14140000e+03  6.28200000e-11  0.00000000e+00
1.18430430e-03  5.37468395e+00  2.53930000e-02  7.07110000e+03  6.80100000e-11  0.00000000e+00
1.19614730e-03  5.37510215e+00  2.53950000e-02  7.00150000e+03  7.36300000e-11  0.00000000e+00
1.20810880e-03  5.37549740e+00  2.53970000e-02  6.93260000e+03  7.97000000e-11  0.00000000e+00
1.22018990e-03  5.37587156e+00  2.53980000e-02  6.86440000e+03  8.62500000e-11  0.00000000e+00
1.23239180e-03  5.37622621e+00  2.54000000e-02  6.79680000e+03  9.33300000e-11  0.00000000e+00
1.24471570e-03  5.37656277e+00  2.54010000e-02  6.73000000e+03  1.01000000e-10  0.00000000e+00
1.25716280e-03  5.37688244e+00  2.54030000e-02  6.66380000e+03  1.09200000e-10  0.00000000e+00
1.26973440e-03  5.37718631e+00  2.54040000e-02  6.59820000e+03  1.18200000e-10  0.00000000e+00
1.28243180e-03  5.37747534e+00  2.54060000e-02  6.53330000e+03  1.27800000e-10  0.00000000e+00
1.29525610e-03  5.37775035e+00  2.54080000e-02  6.46900000e+03  1.38200000e-10  0.00000000e+00
1.30820860e-03  5.37801212e+00  2.54090000e-02  6.40540000e+03  1.49400000e-10  0.00000000e+00
1.32129070e-03  5.37826130e+00  2.54110000e-02  6.34240000e+03  1.61500000e-10  0.00000000e+00
1.33450360e-03  5.37849849e+00  2.54130000e-02  6.28000000e+03  1.74500000e-10  0.00000000e+00
1.34784860e-03  5.37872425e+00  2.54150000e-02  6.21830000e+03  1.88600000e-10  0.00000000e+00
1.36132710e-03  5.37893905e+00  2.54160000e-02  6.15710000e+03  2.03800000e-10  0.00000000e+00
1.37494030e-03  5.37914332e+00  2.54180000e-02  6.09660000e+03  2.20100000e-10  0.00000000e+00
1.38868970e-03  5.37933746e+00  2.54200000e-02  6.03660000e+03  2.37800000e-10  0.00000000e+00
1.40257660e-03  5.37952184e+00  2.54220000e-02  5.97730000e+03  2.56800000e-10  0.00000000e+00
1.41660240e-03  5.37969675e+00  2.54230000e-02  5.91850000e+03  2.77300000e-10  0.00000000e+00
1.43076840e-03  5.37986250e+00  2.54250000e-02  5.86030000e+03  2.99400000e-10  0.00000000e+00
1.44507600e-03  5.38001934e+00  2.54270000e-02  5.80270000e+03  3.23200000e-10  0.00000000e+00
1.45952680e-03  5.38016752e+00  2.54290000e-02  5.74570000e+03  3.48900000e-10  0.00000000e+00
1.47412200e-03  5.38030724e+00  2.54310000e-02  5.68920000e+03  3.76500000e-10  0.00000000e+00
1.48886320e-03  5.38043869e+00  2.54330000e-02  5.63330000e+03  4.06300000e-10  0.00000000e+00
1.50375190e-03  5.38056204e+00  2.54350000e-02  5.57800000e+03  4.38300000e-10  0.00000000e+00
1.51878940e-03  5.38067746e+00  2.54370000e-02  5.52320000e+03  4.72800000e-10  0.00000000e+00
1.53397720e-03  5.38078507e+00  2.54390000e-02  5.46890000e+03  5.10000000e-10  0.00000000e+00
1.54931700e-03  5.38088500e+00  2.54410000e-02  5.41520000e+03  5.50000000e-10  0.00000000e+00
1.56481020e-03  5.38097736e+00  2.54430000e-02  5.36200000e+03  5.93000000e-10  0.00000000e+00
1.58045820e-03  5.38106225e+00  2.54450000e-02  5.30930000e+03  6.39300000e-10  0.00000000e+00
1.59626280e-03  5.38113974e+00  2.54470000e-02  5.25720000e+03  6.89200000e-10  0.00000000e+00
1.61222540e-03  5.38120991e+00  2.54490000e-02  5.20560000e+03  7.42800000e-10  0.00000000e+00
1.62834770e-03  5.38127283e+00  2.54510000e-02  5.15440000e+03  8.00500000e-10  0.00000000e+00
1.64463110e-03  5.38132854e+00  2.54530000e-02  5.10380000e+03  8.62500000e-10  0.00000000e+00
1.66107740e-03  5.38137709e+00  2.54550000e-02  5.05370000e+03  9.29200000e-10  0.00000000e+00
1.67768820e-03  5.38141851e+00  2.54570000e-02  5.00410000e+03  1.00100000e-09  0.00000000e+00
1.69446500e-03  5.38145282e+00  2.54590000e-02  4.95500000e+03  1.07800000e-09  0.00000000e+00
1.71140970e-03  5.38148005e+00  2.54610000e-02  4.90630000e+03  1.16100000e-09  0.00000000e+00
1.72852380e-03  5.38150021e+00  2.54640000e-02  4.85820000e+03  1.25000000e-09  0.00000000e+00
1.74580900e-03  5.38151330e+00  2.54660000e-02  4.81050000e+03  1.34500000e-09  0.00000000e+00
1.76326710e-03  5.38151931e+00  2.54680000e-02  4.76330000e+03  1.44800000e-09  0.00000000e+00
1.78089970e-03  5.38151824e+00  2.54700000e-02  4.71660000e+03  1.55900000e-09  0.00000000e+00
1.79870870e-03  5.38151006e+00  2.54730000e-02  4.67030000e+03  1.67700000e-09  0.00000000e+00
1.81669580e-03  5.38149477e+00  2.54750000e-02  4.62450000e+03  1.80500000e-09  0.00000000e+00
1.83486270e-03  5.38147232e+00  2.54770000e-02  4.57910000e+03  1.94100000e-09  0.00000000e+00
1.85321130e-03  5.38144269e+00  2.54800000e-02  4.53420000e+03  2.08800000e-09  0.00000000e+00
1.87174340e-03  5.38140583e+00  2.54820000e-02  4.48970000e+03  2.24600000e-09  0.00000000e+00
1.89046080e-03  5.38136171e+00  2.54850000e-02  4.44570000e+03  2.41500000e-09  0.00000000e+00
1.90936540e-03  5.38131027e+00  2.54870000e-02  4.40210000e+03  2.59600000e-09  0.00000000e+00
1.92845900e-03  5.38125146e+00  2.54900000e-02  4.35890000e+03  2.79100000e-09  0.00000000e+00
1.94774360e-03  5.38118522e+00  2.54920000e-02  4.31620000e+03  2.99900000e-09  0.00000000e+00
1.96722100e-03  5.38111149e+00  2.54950000e-02  4.27390000e+03  3.22300000e-09  0.00000000e+00
1.98689320e-03  5.38103019e+00  2.54970000e-02  4.23200000e+03  3.46400000e-09  0.00000000e+00
2.00676210e-03  5.38094125e+00  2.55000000e-02  4.19050000e+03  3.72100000e-09  0.00000000e+00
2.02682970e-03  5.38084460e+00  2.55020000e-02  4.14950000e+03  3.99700000e-09  0.00000000e+00
2.04709800e-03  5.38074016e+00  2.55050000e-02  4.10880000e+03  4.29300000e-09  0.00000000e+00
2.06756900e-03  5.38062783e+00  2.55080000e-02  4.06860000e+03  4.61100000e-09  0.00000000e+00
2.08824460e-03  5.38050752e+00  2.55100000e-02  4.02870000e+03  4.95100000e-09  0.00000000e+00
2.10912710e-03  5.38037915e+00  2.55130000e-02  3.98920000e+03  5.31500000e-09  0.00000000e+00
2.13021830e-03  5.38024261e+00  2.55160000e-02  3.95020000e+03  5.70500000e-09  0.00000000e+00
2.15152050e-03  5.38009779e+00  2.55190000e-02  3.91150000e+03  6.12400000e-09  0.00000000e+00
2.17303570e-03  5.37994459e+00  2.55220000e-02  3.87320000e+03  6.57100000e-09  0.00000000e+00
2.19476600e-03  5.37978289e+00  2.55240000e-02  3.83530000e+03  7.05100000e-09  0.00000000e+00
2.21671360e-03  5.37961259e+00  2.55270000e-02  3.79770000e+03  7.56500000e-09  0.00000000e+00
2.23888080e-03  5.37943355e+00  2.55300000e-02  3.76050000e+03  8.11400000e-09  0.00000000e+00
2.26126950e-03  5.37924565e+00  2.55330000e-02  3.72370000e+03  8.70300000e-09  0.00000000e+00
2.28388220e-03  5.37904876e+00  2.55360000e-02  3.68730000e+03  9.33300000e-09  0.00000000e+00
2.30672100e-03  5.37884276e+00  2.55390000e-02  3.65120000e+03  1.00100000e-08  0.00000000e+00
2.32978820e-03  5.37862749e+00  2.55420000e-02  3.61550000e+03  1.07300000e-08  0.00000000e+00
2.35308610e-03  5.37840282e+00  2.55450000e-02  3.58010000e+03  1.15000000e-08  0.00000000e+00
2.37661690e-03  5.37816860e+00  2.55480000e-02  3.54510000e+03  1.23200000e-08  0.00000000e+00
2.40038310e-03  5.37792468e+00  2.55510000e-02  3.51040000e+03  1.32100000e-08  0.00000000e+00
2.42438690e-03  5.37767090e+00  2.55540000e-02  3.47610000e+03  1.41500000e-08  0.00000000e+00
2.44863070e-03  5.37740710e+00  2.55580000e-02  3.44210000e+03  1.51600000e-08  0.00000000e+00
2.47311700e-03  5.37713313e+00  2.55610000e-02  3.40850000e+03  1.62400000e-08  0.00000000e+00
2.49784810e-03  5.37684880e+00  2.55640000e-02  3.37510000e+03  1.73900000e-08  0.00000000e+00
2.52282660e-03  5.37655395e+00  2.55670000e-02  3.34220000e+03  1.86200000e-08  0.00000000e+00
2.54805480e-03  5.37624840e+00  2.55710000e-02  3.30950000e+03  1.99400000e-08  0.00000000e+00
2.57353540e-03  5.37593196e+00  2.55740000e-02  3.27720000e+03  2.13500000e-08  0.00000000e+00
2.59927070e-03  5.37560444e+00  2.55770000e-02  3.24510000e+03  2.28500000e-08  0.00000000e+00
2.62526340e-03  5.37526567e+00  2.55810000e-02  3.21340000e+03  2.44600000e-08  0.00000000e+00
2.65151600e-03  5.37491542e+00  2.55840000e-02  3.18200000e+03  2.61700000e-08  0.00000000e+00
2.67803110e-03  5.37455351e+00  2.55880000e-02  3.15100000e+03  2.80000000e-08  0.00000000e+00
2.70481140e-03  5.37417973e+00  2.55910000e-02  3.12020000e+03  2.99600000e-08  0.00000000e+00
2.73185950e-03  5.37379386e+00  2.55950000e-02  3.08970000e+03  3.20400000e-08  0.00000000e+00
2.75917810e-03  5.37339569e+00  2.55980000e-02  3.05960000e+03  3.42700000e-08  0.00000000e+00
2.78676980e-03  5.37298499e+00  2.56020000e-02  3.02970000e+03  3.66500000e-08  0.00000000e+00
2.81463750e-03  5.37256153e+00  2.56060000e-02  3.00020000e+03  3.91800000e-08  0.00000000e+00
2.84278380e-03  5.37212509e+00  2.56090000e-02  2.97090000e+03  4.18900000e-08  0.00000000e+00
2.87121160e-03  5.37167542e+00  2.56130000e-02  2.94190000e+03  4.47700000e-08  0.00000000e+00
2.89992370e-03  5.37121228e+00  2.56170000e-02  2.91320000e+03  4.78500000e-08  0.00000000e+00
2.92892290e-03  5.37073541e+00  2.56210000e-02  2.88480000e+03  5.11300000e-08  0.00000000e+00
2.95821210e-03  5.37024457e+00  2.56250000e-02  2.85670000e+03  5.46300000e-08  0.00000000e+00
2.98779420e-03  5.36973949e+00  2.56290000e-02  2.82880000e+03  5.83700000e-08  0.00000000e+00
3.01767220e-03  5.36921989e+00  2.56330000e-02  2.80120000e+03  6.23400000e-08  0.00000000e+00
3.04784880e-03  5.36868552e+00  2.56370000e-02  2.77390000e+03  6.65800000e-08  0.00000000e+00
3.07832730e-03  5.36813608e+00  2.56410000e-02  2.74690000e+03  7.11000000e-08  0.00000000e+00
3.10911050e-03  5.36757129e+00  2.56450000e-02  2.72010000e+03  7.59200000e-08  0.00000000e+00
3.14020160e-03  5.36699087e+00  2.56490000e-02  2.69360000e+03  8.10500000e-08  0.00000000e+00
3.17160360e-03  5.36639450e+00  2.56530000e-02  2.66740000e+03  8.65100000e-08  0.00000000e+00
3.20331960e-03  5.36578188e+00  2.56570000e-02  2.64140000e+03  9.23300000e-08  0.00000000e+00
3.23535280e-03  5.36515270e+00  2.56610000e-02  2.61570000e+03  9.85300000e-08  0.00000000e+00
3.26770630e-03  5.36450665e+00  2.56660000e-02  2.59020000e+03  1.05100000e-07  0.00000000e+00
3.30038330e-03  5.36384338e+00  2.56700000e-02  2.56500000e+03  1.12200000e-07  0.00000000e+00
3.33338710e-03  5.36316258e+00  2.56740000e-02  2.54010000e+03  1.19600000e-07  0.00000000e+00
3.36672100e-03  5.36246389e+00  2.56790000e-02  2.51530000e+03  1.27600000e-07  0.00000000e+00
3.40038810e-03  5.36174698e+00  2.56830000e-02  2.49090000e+03  1.36100000e-07  0.00000000e+00
3.43439200e-03  5.36101148e+00  2.56880000e-02  2.46670000e+03  1.45100000e-07  0.00000000e+00
3.46873590e-03  5.36025702e+00  2.56930000e-02  2.44270000e+03  1.54700000e-07  0.00000000e+00
3.50342320e-03  5.35948325e+00  2.56970000e-02  2.41890000e+03  1.64900000e-07  0.00000000e+00
3.53845740e-03  5.35868978e+00  2.57020000e-02  2.39540000e+03  1.75700000e-07  0.00000000e+00
3.57384190e-03  5.35787621e+00  2.57070000e-02  2.37210000e+03  1.87200000e-07  0.00000000e+00
3.60958030e-03  5.35704216e+00  2.57110000e-02  2.34910000e+03  1.99500000e-07  0.00000000e+00
3.64567610e-03  5.35618721e+00  2.57160000e-02  2.32620000e+03  2.12600000e-07  0.00000000e+00
3.68213280e-03  5.35531097e+00  2.57210000e-02  2.30370000e+03  2.26400000e-07  0.00000000e+00
3.71895410e-03  5.35441299e+00  2.57260000e-02  2.28130000e+03  2.41100000e-07  0.00000000e+00
3.75614360e-03  5.35349285e+00  2.57310000e-02  2.25910000e+03  2.56800000e-07  0.00000000e+00
3.79370500e-03  5.35255012e+00  2.57360000e-02  2.23720000e+03  2.73400000e-07  0.00000000e+00
3.83164200e-03  5.35158433e+00  2.57410000e-02  2.21550000e+03  2.91100000e-07  0.00000000e+00
3.86995840e-03  5.35059504e+00  2.57460000e-02  2.19400000e+03  3.09900000e-07  0.00000000e+00
3.90865800e-03  5.34958176e+00  2.57510000e-02  2.17270000e+03  3.29800000e-07  0.00000000e+00
3.94774450e-03  5.34854402e+00  2.57570000e-02  2.15160000e+03  3.51000000e-07  0.00000000e+00
3.98722190e-03  5.34748134e+00  2.57620000e-02  2.13080000e+03  3.73500000e-07  0.00000000e+00
4.02709410e-03  5.34639320e+00  2.57670000e-02  2.11010000e+03  3.97400000e-07  0.00000000e+00
4.06736500e-03  5.34527910e+00  2.57730000e-02  2.08970000e+03  4.22700000e-07  0.00000000e+00
4.10803860e-03  5.34413852e+00  2.57780000e-02  2.06940000e+03  4.49600000e-07  0.00000000e+00
4.14911890e-03  5.34297092e+00  2.57840000e-02  2.04940000e+03  4.78100000e-07  0.00000000e+00
4.19061010e-03  5.34177575e+00  2.57890000e-02  2.02950000e+03  5.08400000e-07  0.00000000e+00
4.23251620e-03  5.34055247e+00  2.57950000e-02  2.00990000e+03  5.40500000e-07  0.00000000e+00
4.27484130e-03  5.33930051e+00  2.58010000e-02  1.99040000e+03  5.74600000e-07  0.00000000e+00
4.31758960e-03  5.33801927e+00  2.58070000e-02  1.97110000e+03  6.10700000e-07  0.00000000e+00
4.36076550e-03  5.33670818e+00  2.58120000e-02  1.95210000e+03  6.49100000e-07  0.00000000e+00
4.40437310e-03  5.33536662e+00  2.58180000e-02  1.93320000e+03  6.89700000e-07  0.00000000e+00
4.44841680e-03  5.33399398e+00  2.58240000e-02  1.91450000e+03  7.32800000e-07  0.00000000e+00
4.49290090e-03  5.33258963e+00  2.58300000e-02  1.89600000e+03  7.78500000e-07  0.00000000e+00
4.53782990e-03  5.33115292e+00  2.58360000e-02  1.87760000e+03  8.26900000e-07  0.00000000e+00
4.58320820e-03  5.32968319e+00  2.58430000e-02  1.85950000e+03  8.78200000e-07  0.00000000e+00
4.62904020e-03  5.32817978e+00  2.58490000e-02  1.84150000e+03  9.32600000e-07  0.00000000e+00
4.67533060e-03  5.32664199e+00  2.58550000e-02  1.82370000e+03  9.90200000e-07  0.00000000e+00
4.72208380e-03  5.32506912e+00  2.58620000e-02  1.80610000e+03  1.05100000e-06  0.00000000e+00
4.76930460e-03  5.32346045e+00  2.58680000e-02  1.78870000e+03  1.11600000e-06  0.00000000e+00
4.81699760e-03  5.32181526e+00  2.58740000e-02  1.77140000e+03  1.18400000e-06  0.00000000e+00
4.86516750e-03  5.32013280e+00  2.58810000e-02  1.75430000e+03  1.25700000e-06  0.00000000e+00
4.91381920e-03  5.31841230e+00  2.58880000e-02  1.73740000e+03  1.33300000e-06  0.00000000e+00
4.96295730e-03  5.31665298e+00  2.58940000e-02  1.72070000e+03  1.41500000e-06  0.00000000e+00
5.01258680e-03  5.31485405e+00  2.59010000e-02  1.70410000e+03  1.50100000e-06  0.00000000e+00
5.06271270e-03  5.31301469e+00  2.59080000e-02  1.68760000e+03  1.59200000e-06  0.00000000e+00
5.11333970e-03  5.31113407e+00  2.59150000e-02  1.67140000e+03  1.68800000e-06  0.00000000e+00
5.16447310e-03  5.30921135e+00  2.59220000e-02  1.65530000e+03  1.79000000e-06  0.00000000e+00
5.21611780e-03  5.30724566e+00  2.59290000e-02  1.63930000e+03  1.89700000e-06  0.00000000e+00
5.26827890e-03  5.30523610e+00  2.59360000e-02  1.62360000e+03  2.01100000e-06  0.00000000e+00
5.32096160e-03  5.30318178e+00  2.59440000e-02  1.60790000e+03  2.13200000e-06  0.00000000e+00
5.37417120e-03  5.30108177e+00  2.59510000e-02  1.59250000e+03  2.25900000e-06  0.00000000e+00
5.42791290e-03  5.29893512e+00  2.59580000e-02  1.57710000e+03  2.39400000e-06  0.00000000e+00
5.48219190e-03  5.29674088e+00  2.59660000e-02  1.56200000e+03  2.53600000e-06  0.00000000e+00
5.53701380e-03  5.29449806e+00  2.59730000e-02  1.54700000e+03  2.68700000e-06  0.00000000e+00
5.59238390e-03  5.29220564e+00  2.59810000e-02  1.53210000e+03  2.84600000e-06  0.00000000e+00
5.64830770e-03  5.28986261e+00  2.59890000e-02  1.51740000e+03  3.01400000e-06  0.00000000e+00
5.70479070e-03  5.28746791e+00  2.59970000e-02  1.50280000e+03  3.19200000e-06  0.00000000e+00
5.76183850e-03  5.28502046e+00  2.60050000e-02  1.48840000e+03  3.38000000e-06  0.00000000e+00
5.81945690e-03  5.28251917e+00  2.60130000e-02  1.47410000e+03  3.57800000e-06  0.00000000e+00
5.87765140e-03  5.27996292e+00  2.60210000e-02  1.46000000e+03  3.78700000e-06  0.00000000e+00
5.93642780e-03  5.27735057e+00  2.60290000e-02  1.44600000e+03  4.00800000e-06  0.00000000e+00
5.99579210e-03  5.27468093e+00  2.60370000e-02  1.43210000e+03  4.24200000e-06  0.00000000e+00
6.05574990e-03  5.27195283e+00  2.60450000e-02  1.41840000e+03  4.48800000e-06  0.00000000e+00
6.11630740e-03  5.26916503e+00  2.60540000e-02  1.40480000e+03  4.74800000e-06  0.00000000e+00
6.17747040e-03  5.26631628e+00  2.60620000e-02  1.39130000e+03  5.02300000e-06  0.00000000e+00
6.23924500e-03  5.26340532e+00  2.60710000e-02  1.37800000e+03  5.31300000e-06  0.00000000e+00
6.30163740e-03  5.26043083e+00  2.60800000e-02  1.36480000e+03  5.61800000e-06  0.00000000e+00
6.36465370e-03  5.25739148e+00  2.60890000e-02  1.35180000e+03  5.94100000e-06  0.00000000e+00
6.42830020e-03  5.25428592e+00  2.60980000e-02  1.33880000e+03  6.28100000e-06  0.00000000e+00
6.49258320e-03  5.25111274e+00  2.61070000e-02  1.32610000e+03  6.64000000e-06  0.00000000e+00
6.55750890e-03  5.24787053e+00  2.61160000e-02  1.31340000e+03  7.01800000e-06  0.00000000e+00
6.62308400e-03  5.24455783e+00  2.61250000e-02  1.30080000e+03  7.41800000e-06  0.00000000e+00
6.68931470e-03  5.24117315e+00  2.61340000e-02  1.28840000e+03  7.83800000e-06  0.00000000e+00
6.75620780e-03  5.23771498e+00  2.61440000e-02  1.27610000e+03  8.28200000e-06  0.00000000e+00
6.82376980e-03  5.23418176e+00  2.61530000e-02  1.26390000e+03  8.74900000e-06  0.00000000e+00
6.89200750e-03  5.23057189e+00  2.61630000e-02  1.25190000e+03  9.24200000e-06  0.00000000e+00
6.96092750e-03  5.22688377e+00  2.61730000e-02  1.24000000e+03  9.76100000e-06  0.00000000e+00
7.03053670e-03  5.22311573e+00  2.61830000e-02  1.22820000e+03  1.03100000e-05  0.00000000e+00
7.10084200e-03  5.21926606e+00  2.61930000e-02  1.21650000e+03  1.08800000e-05  0.00000000e+00
7.17185030e-03  5.21533304e+00  2.62030000e-02  1.20490000e+03  1.14900000e-05  0.00000000e+00
