#  Xe:    Z = 54;   Atomic weight = 131.2900 g/mol ;    nominal density:   [INLINE] = 5.4580E-03 g/cm3
#         a(barns/atom) = (cm2/g)    2.18012E+02
#         E(eV) (cm2/g) = f2(e/atom)    3.20514E+05
#         14 edges. Edge energies (keV):
# K      3.45614E+01  L I    5.45280E+00  L II   5.10370E+00  L III  4.78220E+00
# M I    1.14460E+00  M II   9.99000E-01  M III  9.37000E-01  M IV   6.85400E-01
# M V    6.72300E-01  N I    2.08100E-01  N II   1.46700E-01  N III  1.46700E-01
# N IV   6.40000E-02  N V    6.40000E-02
#         Relativistic correction estimate frel (H82,3/5CL) = -6.4519E-01, -3.9600E-01 e/atom
#         Nuclear Thomson correction fNT = -1.2184E-02 e/atom
#    _________________________________________________________________________________________________________
#  Form Factors, Attenuation and Scattering Cross-sections
#  Z=54, E = 0.001 - 1000 keV
#                                                             Attenuation
#    E         f1            f2                     [INLINE] (coh+inc) Coefficient    K       wavelength
#    keV       e/atom       e/atom      cm2/g       cm2/g      cm2/g          cm2/g        nm
1.01000000e-03  1.74452175e+01  1.76880000e-02  5.61300000e+03  3.56200000e-11  0.00000000e+00
1.02010000e-03  1.74479868e+01  1.76880000e-02  5.55760000e+03  3.85900000e-11  0.00000000e+00
1.03030100e-03  1.74500704e+01  1.76890000e-02  5.50270000e+03  4.17900000e-11  0.00000000e+00
1.04060400e-03  1.74515224e+01  1.76890000e-02  5.44840000e+03  4.52500000e-11  0.00000000e+00
1.05101010e-03  1.74527460e+01  1.76900000e-02  5.39460000e+03  4.89900000e-11  0.00000000e+00
1.06152010e-03  1.74537302e+01  1.76900000e-02  5.34140000e+03  5.30300000e-11  0.00000000e+00
1.07213530e-03  1.74545638e+01  1.76910000e-02  5.28860000e+03  5.74000000e-11  0.00000000e+00
1.08285670e-03  1.74552662e+01  1.76910000e-02  5.23650000e+03  6.21200000e-11  0.00000000e+00
1.09368520e-03  1.74559052e+01  1.76920000e-02  5.18480000e+03  6.72200000e-11  0.00000000e+00
1.10462210e-03  1.74567323e+01  1.76920000e-02  5.13360000e+03  7.27200000e-11  0.00000000e+00
1.11566830e-03  1.74572390e+01  1.76930000e-02  5.08290000e+03  7.86600000e-11  0.00000000e+00
1.12682500e-03  1.74577148e+01  1.76940000e-02  5.03280000e+03  8.50800000e-11  0.00000000e+00
1.13809320e-03  1.74583084e+01  1.76940000e-02  4.98310000e+03  9.20100000e-11  0.00000000e+00
1.14947410e-03  1.74587162e+01  1.76950000e-02  4.93400000e+03  9.94800000e-11  0.00000000e+00
1.16096880e-03  1.74591051e+01  1.76950000e-02  4.88530000e+03  1.07500000e-10  0.00000000e+00
1.17257850e-03  1.74594770e+01  1.76960000e-02  4.83710000e+03  1.16300000e-10  0.00000000e+00
1.18430430e-03  1.74598333e+01  1.76970000e-02  4.78930000e+03  1.25600000e-10  0.00000000e+00
1.19614730e-03  1.74601756e+01  1.76970000e-02  4.74210000e+03  1.35800000e-10  0.00000000e+00
1.20810880e-03  1.74605049e+01  1.76980000e-02  4.69530000e+03  1.46700000e-10  0.00000000e+00
1.22018990e-03  1.74608223e+01  1.76990000e-02  4.64900000e+03  1.58500000e-10  0.00000000e+00
1.23239180e-03  1.74611288e+01  1.76990000e-02  4.60310000e+03  1.71200000e-10  0.00000000e+00
1.24471570e-03  1.74614251e+01  1.77000000e-02  4.55770000e+03  1.84900000e-10  0.00000000e+00
1.25716280e-03  1.74617120e+01  1.77010000e-02  4.51280000e+03  1.99600000e-10  0.00000000e+00
1.26973440e-03  1.74619901e+01  1.77010000e-02  4.46820000e+03  2.15500000e-10  0.00000000e+00
1.28243180e-03  1.74622601e+01  1.77020000e-02  4.42420000e+03  2.32700000e-10  0.00000000e+00
1.29525610e-03  1.74625223e+01  1.77030000e-02  4.38050000e+03  2.51100000e-10  0.00000000e+00
1.30820860e-03  1.74627774e+01  1.77030000e-02  4.33730000e+03  2.71000000e-10  0.00000000e+00
1.32129070e-03  1.74630257e+01  1.77040000e-02  4.29460000e+03  2.92500000e-10  0.00000000e+00
1.33450360e-03  1.74632676e+01  1.77050000e-02  4.25220000e+03  3.15500000e-10  0.00000000e+00
1.34784860e-03  1.74635035e+01  1.77050000e-02  4.21030000e+03  3.40400000e-10  0.00000000e+00
1.36132710e-03  1.74637337e+01  1.77060000e-02  4.16880000e+03  3.67100000e-10  0.00000000e+00
1.37494030e-03  1.74639585e+01  1.77070000e-02  4.12760000e+03  3.95900000e-10  0.00000000e+00
1.38868970e-03  1.74641782e+01  1.77070000e-02  4.08690000e+03  4.26900000e-10  0.00000000e+00
1.40257660e-03  1.74643930e+01  1.77080000e-02  4.04660000e+03  4.60300000e-10  0.00000000e+00
1.41660240e-03  1.74646032e+01  1.77090000e-02  4.00680000e+03  4.96100000e-10  0.00000000e+00
1.43076840e-03  1.74648089e+01  1.77100000e-02  3.96720000e+03  5.34700000e-10  0.00000000e+00
1.44507600e-03  1.74650104e+01  1.77100000e-02  3.92810000e+03  5.76300000e-10  0.00000000e+00
1.45952680e-03  1.74652078e+01  1.77110000e-02  3.88940000e+03  6.20900000e-10  0.00000000e+00
1.47412200e-03  1.74654014e+01  1.77120000e-02  3.85110000e+03  6.68900000e-10  0.00000000e+00
1.48886320e-03  1.74655912e+01  1.77130000e-02  3.81310000e+03  7.20600000e-10  0.00000000e+00
1.50375190e-03  1.74657775e+01  1.77140000e-02  3.77550000e+03  7.76100000e-10  0.00000000e+00
1.51878940e-03  1.74659603e+01  1.77140000e-02  3.73830000e+03  8.35800000e-10  0.00000000e+00
1.53397720e-03  1.74661398e+01  1.77150000e-02  3.70150000e+03  8.99900000e-10  0.00000000e+00
1.54931700e-03  1.74663161e+01  1.77160000e-02  3.66500000e+03  9.68800000e-10  0.00000000e+00
1.56481020e-03  1.74664893e+01  1.77170000e-02  3.62890000e+03  1.04300000e-09  0.00000000e+00
1.58045820e-03  1.74666595e+01  1.77180000e-02  3.59310000e+03  1.12200000e-09  0.00000000e+00
1.59626280e-03  1.74668269e+01  1.77180000e-02  3.55770000e+03  1.20800000e-09  0.00000000e+00
1.61222540e-03  1.74669914e+01  1.77190000e-02  3.52260000e+03  1.30000000e-09  0.00000000e+00
1.62834770e-03  1.74671532e+01  1.77200000e-02  3.48790000e+03  1.39800000e-09  0.00000000e+00
1.64463110e-03  1.74673123e+01  1.77210000e-02  3.45360000e+03  1.50400000e-09  0.00000000e+00
1.66107740e-03  1.74674689e+01  1.77220000e-02  3.41950000e+03  1.61700000e-09  0.00000000e+00
1.67768820e-03  1.74676230e+01  1.77230000e-02  3.38590000e+03  1.73900000e-09  0.00000000e+00
1.69446500e-03  1.74677747e+01  1.77240000e-02  3.35250000e+03  1.87000000e-09  0.00000000e+00
1.71140970e-03  1.74679239e+01  1.77250000e-02  3.31950000e+03  2.01000000e-09  0.00000000e+00
1.72852380e-03  1.74680709e+01  1.77250000e-02  3.28680000e+03  2.16100000e-09  0.00000000e+00
1.74580900e-03  1.74682155e+01  1.77260000e-02  3.25440000e+03  2.32200000e-09  0.00000000e+00
1.76326710e-03  1.74683580e+01  1.77270000e-02  3.22230000e+03  2.49600000e-09  0.00000000e+00
1.78089970e-03  1.74684982e+01  1.77280000e-02  3.19060000e+03  2.68100000e-09  0.00000000e+00
1.79870870e-03  1.74686364e+01  1.77290000e-02  3.15920000e+03  2.88000000e-09  0.00000000e+00
1.81669580e-03  1.74687724e+01  1.77300000e-02  3.12810000e+03  3.09400000e-09  0.00000000e+00
1.83486270e-03  1.74689064e+01  1.77310000e-02  3.09730000e+03  3.32300000e-09  0.00000000e+00
1.85321130e-03  1.74690383e+01  1.77320000e-02  3.06680000e+03  3.56800000e-09  0.00000000e+00
1.87174340e-03  1.74691682e+01  1.77330000e-02  3.03660000e+03  3.83100000e-09  0.00000000e+00
1.89046080e-03  1.74692962e+01  1.77340000e-02  3.00670000e+03  4.11300000e-09  0.00000000e+00
1.90936540e-03  1.74694222e+01  1.77350000e-02  2.97710000e+03  4.41500000e-09  0.00000000e+00
1.92845900e-03  1.74695464e+01  1.77360000e-02  2.94780000e+03  4.73800000e-09  0.00000000e+00
1.94774360e-03  1.74696686e+01  1.77370000e-02  2.91880000e+03  5.08400000e-09  0.00000000e+00
1.96722100e-03  1.74697889e+01  1.77380000e-02  2.89000000e+03  5.45500000e-09  0.00000000e+00
1.98689320e-03  1.74699074e+01  1.77390000e-02  2.86160000e+03  5.85200000e-09  0.00000000e+00
2.00676210e-03  1.74700241e+01  1.77400000e-02  2.83340000e+03  6.27700000e-09  0.00000000e+00
2.02682970e-03  1.74701389e+01  1.77410000e-02  2.80550000e+03  6.73100000e-09  0.00000000e+00
2.04709800e-03  1.74702519e+01  1.77420000e-02  2.77790000e+03  7.21800000e-09  0.00000000e+00
2.06756900e-03  1.74703631e+01  1.77440000e-02  2.75060000e+03  7.73900000e-09  0.00000000e+00
2.08824460e-03  1.74704726e+01  1.77450000e-02  2.72350000e+03  8.29700000e-09  0.00000000e+00
2.10912710e-03  1.74705803e+01  1.77460000e-02  2.69670000e+03  8.89300000e-09  0.00000000e+00
2.13021830e-03  1.74706861e+01  1.77470000e-02  2.67020000e+03  9.53100000e-09  0.00000000e+00
2.15152050e-03  1.74707903e+01  1.77480000e-02  2.64390000e+03  1.02100000e-08  0.00000000e+00
2.17303570e-03  1.74708926e+01  1.77490000e-02  2.61790000e+03  1.09400000e-08  0.00000000e+00
2.19476600e-03  1.74709933e+01  1.77500000e-02  2.59220000e+03  1.17200000e-08  0.00000000e+00
2.21671360e-03  1.74710921e+01  1.77510000e-02  2.56670000e+03  1.25600000e-08  0.00000000e+00
2.23888080e-03  1.74711892e+01  1.77530000e-02  2.54140000e+03  1.34500000e-08  0.00000000e+00
2.26126950e-03  1.74712846e+01  1.77540000e-02  2.51640000e+03  1.44000000e-08  0.00000000e+00
2.28388220e-03  1.74713782e+01  1.77550000e-02  2.49170000e+03  1.54200000e-08  0.00000000e+00
2.30672100e-03  1.74714701e+01  1.77560000e-02  2.46720000e+03  1.65000000e-08  0.00000000e+00
2.32978820e-03  1.74715602e+01  1.77580000e-02  2.44290000e+03  1.76700000e-08  0.00000000e+00
2.35308610e-03  1.74716485e+01  1.77590000e-02  2.41890000e+03  1.89100000e-08  0.00000000e+00
2.37661690e-03  1.74717351e+01  1.77600000e-02  2.39510000e+03  2.02300000e-08  0.00000000e+00
2.40038310e-03  1.74718199e+01  1.77610000e-02  2.37160000e+03  2.16500000e-08  0.00000000e+00
2.42438690e-03  1.74719029e+01  1.77630000e-02  2.34830000e+03  2.31600000e-08  0.00000000e+00
2.44863070e-03  1.74719841e+01  1.77640000e-02  2.32520000e+03  2.47700000e-08  0.00000000e+00
2.47311700e-03  1.74720635e+01  1.77650000e-02  2.30240000e+03  2.64900000e-08  0.00000000e+00
2.49784810e-03  1.74721411e+01  1.77670000e-02  2.27970000e+03  2.83300000e-08  0.00000000e+00
2.52282660e-03  1.74722169e+01  1.77680000e-02  2.25730000e+03  3.02900000e-08  0.00000000e+00
2.54805480e-03  1.74722908e+01  1.77690000e-02  2.23520000e+03  3.23800000e-08  0.00000000e+00
2.57353540e-03  1.74723629e+01  1.77710000e-02  2.21320000e+03  3.46100000e-08  0.00000000e+00
2.59927070e-03  1.74724332e+01  1.77720000e-02  2.19140000e+03  3.69900000e-08  0.00000000e+00
2.62526340e-03  1.74725015e+01  1.77730000e-02  2.16990000e+03  3.95300000e-08  0.00000000e+00
2.65151600e-03  1.74725680e+01  1.77750000e-02  2.14860000e+03  4.22400000e-08  0.00000000e+00
2.67803110e-03  1.74726325e+01  1.77760000e-02  2.12750000e+03  4.51200000e-08  0.00000000e+00
2.70481140e-03  1.74726951e+01  1.77780000e-02  2.10660000e+03  4.82000000e-08  0.00000000e+00
2.73185950e-03  1.74727558e+01  1.77790000e-02  2.08590000e+03  5.14800000e-08  0.00000000e+00
2.75917810e-03  1.74728145e+01  1.77810000e-02  2.06540000e+03  5.49700000e-08  0.00000000e+00
2.78676980e-03  1.74728712e+01  1.77820000e-02  2.04520000e+03  5.87000000e-08  0.00000000e+00
2.81463750e-03  1.74729258e+01  1.77840000e-02  2.02510000e+03  6.26600000e-08  0.00000000e+00
2.84278380e-03  1.74729785e+01  1.77850000e-02  2.00520000e+03  6.68900000e-08  0.00000000e+00
2.87121160e-03  1.74730290e+01  1.77870000e-02  1.98550000e+03  7.13900000e-08  0.00000000e+00
2.89992370e-03  1.74730775e+01  1.77880000e-02  1.96600000e+03  7.61900000e-08  0.00000000e+00
2.92892290e-03  1.74731239e+01  1.77900000e-02  1.94670000e+03  8.12900000e-08  0.00000000e+00
2.95821210e-03  1.74731681e+01  1.77910000e-02  1.92760000e+03  8.67300000e-08  0.00000000e+00
2.98779420e-03  1.74732101e+01  1.77930000e-02  1.90870000e+03  9.25100000e-08  0.00000000e+00
3.01767220e-03  1.74732500e+01  1.77950000e-02  1.89000000e+03  9.86700000e-08  0.00000000e+00
3.04784880e-03  1.74732876e+01  1.77960000e-02  1.87150000e+03  1.05200000e-07  0.00000000e+00
3.07832730e-03  1.74733230e+01  1.77980000e-02  1.85310000e+03  1.12200000e-07  0.00000000e+00
3.10911050e-03  1.74733561e+01  1.77990000e-02  1.83490000e+03  1.19600000e-07  0.00000000e+00
3.14020160e-03  1.74733868e+01  1.78010000e-02  1.81690000e+03  1.27500000e-07  0.00000000e+00
3.17160360e-03  1.74734152e+01  1.78030000e-02  1.79910000e+03  1.35900000e-07  0.00000000e+00
3.20331960e-03  1.74734412e+01  1.78050000e-02  1.78150000e+03  1.44800000e-07  0.00000000e+00
3.23535280e-03  1.74734647e+01  1.78060000e-02  1.76400000e+03  1.54300000e-07  0.00000000e+00
3.26770630e-03  1.74734858e+01  1.78080000e-02  1.74670000e+03  1.64400000e-07  0.00000000e+00
3.30038330e-03  1.74735044e+01  1.78100000e-02  1.72960000e+03  1.75200000e-07  0.00000000e+00
3.33338710e-03  1.74735205e+01  1.78120000e-02  1.71260000e+03  1.86600000e-07  0.00000000e+00
3.36672100e-03  1.74735339e+01  1.78130000e-02  1.69580000e+03  1.98700000e-07  0.00000000e+00
3.40038810e-03  1.74735448e+01  1.78150000e-02  1.67920000e+03  2.11600000e-07  0.00000000e+00
3.43439200e-03  1.74735529e+01  1.78170000e-02  1.66280000e+03  2.25300000e-07  0.00000000e+00
3.46873590e-03  1.74735584e+01  1.78190000e-02  1.64650000e+03  2.39800000e-07  0.00000000e+00
3.50342320e-03  1.74735611e+01  1.78210000e-02  1.63040000e+03  2.55300000e-07  0.00000000e+00
3.53845740e-03  1.74735610e+01  1.78230000e-02  1.61440000e+03  2.71700000e-07  0.00000000e+00
3.57384190e-03  1.74735580e+01  1.78250000e-02  1.59860000e+03  2.89100000e-07  0.00000000e+00
3.60958030e-03  1.74735521e+01  1.78270000e-02  1.58290000e+03  3.07600000e-07  0.00000000e+00
3.64567610e-03  1.74735433e+01  1.78290000e-02  1.56740000e+03  3.27300000e-07  0.00000000e+00
3.68213280e-03  1.74735315e+01  1.78310000e-02  1.55210000e+03  3.48100000e-07  0.00000000e+00
3.71895410e-03  1.74735167e+01  1.78330000e-02  1.53690000e+03  3.70200000e-07  0.00000000e+00
3.75614360e-03  1.74734987e+01  1.78350000e-02  1.52180000e+03  3.93700000e-07  0.00000000e+00
3.79370500e-03  1.74734776e+01  1.78370000e-02  1.50690000e+03  4.18600000e-07  0.00000000e+00
3.83164200e-03  1.74734532e+01  1.78390000e-02  1.49220000e+03  4.45100000e-07  0.00000000e+00
3.86995840e-03  1.74734256e+01  1.78410000e-02  1.47760000e+03  4.73100000e-07  0.00000000e+00
3.90865800e-03  1.74733947e+01  1.78430000e-02  1.46310000e+03  5.02900000e-07  0.00000000e+00
3.94774450e-03  1.74733603e+01  1.78450000e-02  1.44880000e+03  5.34400000e-07  0.00000000e+00
3.98722190e-03  1.74733226e+01  1.78470000e-02  1.43470000e+03  5.67800000e-07  0.00000000e+00
4.02709410e-03  1.74732813e+01  1.78490000e-02  1.42060000e+03  6.03300000e-07  0.00000000e+00
4.06736500e-03  1.74732364e+01  1.78520000e-02  1.40670000e+03  6.40900000e-07  0.00000000e+00
4.10803860e-03  1.74731879e+01  1.78540000e-02  1.39300000e+03  6.80700000e-07  0.00000000e+00
4.14911890e-03  1.74731356e+01  1.78560000e-02  1.37940000e+03  7.22900000e-07  0.00000000e+00
4.19061010e-03  1.74730796e+01  1.78580000e-02  1.36590000e+03  7.67600000e-07  0.00000000e+00
4.23251620e-03  1.74730197e+01  1.78610000e-02  1.35250000e+03  8.15000000e-07  0.00000000e+00
4.27484130e-03  1.74729559e+01  1.78630000e-02  1.33930000e+03  8.65200000e-07  0.00000000e+00
4.31758960e-03  1.74728882e+01  1.78650000e-02  1.32620000e+03  9.18400000e-07  0.00000000e+00
4.36076550e-03  1.74728163e+01  1.78680000e-02  1.31330000e+03  9.74700000e-07  0.00000000e+00
4.40437310e-03  1.74727403e+01  1.78700000e-02  1.30040000e+03  1.03400000e-06  0.00000000e+00
4.44841680e-03  1.74726601e+01  1.78720000e-02  1.28770000e+03  1.09700000e-06  0.00000000e+00
4.49290090e-03  1.74725755e+01  1.78750000e-02  1.27520000e+03  1.16400000e-06  0.00000000e+00
4.53782990e-03  1.74724866e+01  1.78770000e-02  1.26270000e+03  1.23500000e-06  0.00000000e+00
4.58320820e-03  1.74723932e+01  1.78800000e-02  1.25040000e+03  1.31000000e-06  0.00000000e+00
4.62904020e-03  1.74722952e+01  1.78820000e-02  1.23820000e+03  1.38900000e-06  0.00000000e+00
4.67533060e-03  1.74721926e+01  1.78850000e-02  1.22610000e+03  1.47300000e-06  0.00000000e+00
4.72208380e-03  1.74720853e+01  1.78880000e-02  1.21410000e+03  1.56200000e-06  0.00000000e+00
4.76930460e-03  1.74719731e+01  1.78900000e-02  1.20230000e+03  1.65500000e-06  0.00000000e+00
4.81699760e-03  1.74718560e+01  1.78930000e-02  1.19060000e+03  1.75500000e-06  0.00000000e+00
4.86516750e-03  1.74717339e+01  1.78960000e-02  1.17890000e+03  1.85900000e-06  0.00000000e+00
4.91381920e-03  1.74716067e+01  1.78980000e-02  1.16740000e+03  1.97000000e-06  0.00000000e+00
4.96295730e-03  1.74714743e+01  1.79010000e-02  1.15610000e+03  2.08800000e-06  0.00000000e+00
5.01258680e-03  1.74713366e+01  1.79040000e-02  1.14480000e+03  2.21200000e-06  0.00000000e+00
5.06271270e-03  1.74711934e+01  1.79060000e-02  1.13360000e+03  2.34300000e-06  0.00000000e+00
5.11333970e-03  1.74710447e+01  1.79090000e-02  1.12260000e+03  2.48100000e-06  0.00000000e+00
5.16447310e-03  1.74708904e+01  1.79120000e-02  1.11160000e+03  2.62700000e-06  0.00000000e+00
5.21611780e-03  1.74707304e+01  1.79150000e-02  1.10080000e+03  2.78200000e-06  0.00000000e+00
5.26827890e-03  1.74705644e+01  1.79180000e-02  1.09010000e+03  2.94500000e-06  0.00000000e+00
5.32096160e-03  1.74703926e+01  1.79210000e-02  1.07950000e+03  3.11800000e-06  0.00000000e+00
5.37417120e-03  1.74702146e+01  1.79240000e-02  1.06900000e+03  3.30000000e-06  0.00000000e+00
5.42791290e-03  1.74700304e+01  1.79270000e-02  1.05860000e+03  3.49200000e-06  0.00000000e+00
5.48219190e-03  1.74698399e+01  1.79300000e-02  1.04830000e+03  3.69500000e-06  0.00000000e+00
5.53701380e-03  1.74696429e+01  1.79330000e-02  1.03810000e+03  3.90900000e-06  0.00000000e+00
5.59238390e-03  1.74694394e+01  1.79360000e-02  1.02800000e+03  4.13500000e-06  0.00000000e+00
5.64830770e-03  1.74692291e+01  1.79390000e-02  1.01800000e+03  4.37400000e-06  0.00000000e+00
5.70479070e-03  1.74690120e+01  1.79420000e-02  1.00810000e+03  4.62600000e-06  0.00000000e+00
5.76183850e-03  1.74687879e+01  1.79450000e-02  9.98250000e+02  4.89200000e-06  0.00000000e+00
5.81945690e-03  1.74685566e+01  1.79490000e-02  9.88550000e+02  5.17200000e-06  0.00000000e+00
5.87765140e-03  1.74683181e+01  1.79520000e-02  9.78940000e+02  5.46800000e-06  0.00000000e+00
5.93642780e-03  1.74680722e+01  1.79550000e-02  9.69420000e+02  5.78000000e-06  0.00000000e+00
5.99579210e-03  1.74678187e+01  1.79590000e-02  9.60000000e+02  6.10900000e-06  0.00000000e+00
6.05574990e-03  1.74675575e+01  1.79620000e-02  9.50680000e+02  6.45500000e-06  0.00000000e+00
6.11630740e-03  1.74672885e+01  1.79650000e-02  9.41440000e+02  6.82100000e-06  0.00000000e+00
6.17747040e-03  1.74670114e+01  1.79690000e-02  9.32300000e+02  7.20700000e-06  0.00000000e+00
6.23924500e-03  1.74667261e+01  1.79720000e-02  9.23250000e+02  7.61300000e-06  0.00000000e+00
6.30163740e-03  1.74664324e+01  1.79760000e-02  9.14290000e+02  8.04100000e-06  0.00000000e+00
6.36465370e-03  1.74661303e+01  1.79790000e-02  9.05410000e+02  8.49200000e-06  0.00000000e+00
6.42830020e-03  1.74658194e+01  1.79830000e-02  8.96630000e+02  8.96700000e-06  0.00000000e+00
6.49258320e-03  1.74654997e+01  1.79870000e-02  8.87930000e+02  9.46800000e-06  0.00000000e+00
6.55750890e-03  1.74651709e+01  1.79900000e-02  8.79320000e+02  9.99500000e-06  0.00000000e+00
6.62308400e-03  1.74648329e+01  1.79940000e-02  8.70790000e+02  1.05500000e-05  0.00000000e+00
6.68931470e-03  1.74644855e+01  1.79980000e-02  8.62350000e+02  1.11400000e-05  0.00000000e+00
6.75620780e-03  1.74641284e+01  1.80020000e-02  8.53990000e+02  1.17500000e-05  0.00000000e+00
6.82376980e-03  1.74637616e+01  1.80050000e-02  8.45720000e+02  1.24000000e-05  0.00000000e+00
6.89200750e-03  1.74633847e+01  1.80090000e-02  8.37530000e+02  1.30800000e-05  0.00000000e+00
6.96092750e-03  1.74629976e+01  1.80130000e-02  8.29410000e+02  1.38000000e-05  0.00000000e+00
7.03053670e-03  1.74626001e+01  1.80170000e-02  8.21380000e+02  1.45600000e-05  0.00000000e+00
7.10084200e-03  1.74621920e+01  1.80210000e-02  8.13430000e+02  1.53500000e-05  0.00000000e+00
7.17185030e-03  1.74617731e+01  1.80250000e-02  8.05560000e+02  1.61900000e-05  0.00000000e+00
