#  Ba:    Z = 56;   Atomic weight = 137.3300 g/mol ;    nominal density:   [INLINE] = 3.5000E+00 g/cm3
#         a(barns/atom) = (cm2/g)    2.28042E+02
#         E(eV) (cm2/g) = f2(e/atom)    3.06417E+05
#         17 edges. Edge energies (keV):
# K      3.74406E+01  L I    5.98880E+00  L II   5.62360E+00  L III  5.24700E+00
# M I    1.29280E+00  M II   1.13670E+00  M III  1.06220E+00  M IV   7.96100E-01
# M V    7.80700E-01  N I    2.53000E-01  N II   1.91800E-01  N III  1.79700E-01
# N IV   9.25000E-02  N V    8.99000E-02  O I    3.91000E-02  O II   1.66000E-02
# O III  1.46000E-02
#         Relativistic correction estimate frel (H82,3/5CL) = -7.0761E-01, -4.3260E-01 e/atom
#         Nuclear Thomson correction fNT = -1.2527E-02 e/atom
#    _________________________________________________________________________________________________________
#  Form Factors, Attenuation and Scattering Cross-sections
#  Z=56, E = 0.001 - 1000 keV
#                                                             Attenuation
#    E         f1            f2                     [INLINE] (coh+inc) Coefficient    K       wavelength
#    keV       e/atom       e/atom      cm2/g       cm2/g      cm2/g          cm2/g        nm
1.01000000e-03  1.56895674e+01  3.18770000e-02  9.67090000e+03  5.62500000e-11  0.00000000e+00
1.02010000e-03  1.56964508e+01  3.18790000e-02  9.57590000e+03  6.03500000e-11  0.00000000e+00
1.03030100e-03  1.57001193e+01  3.18820000e-02  9.48190000e+03  6.47500000e-11  0.00000000e+00
1.04060400e-03  1.57030260e+01  3.18850000e-02  9.38880000e+03  6.94700000e-11  0.00000000e+00
1.05101010e-03  1.57053800e+01  3.18870000e-02  9.29660000e+03  7.45500000e-11  0.00000000e+00
1.06152010e-03  1.57073725e+01  3.18900000e-02  9.20540000e+03  8.00100000e-11  0.00000000e+00
1.07213530e-03  1.57089154e+01  3.18930000e-02  9.11510000e+03  8.58700000e-11  0.00000000e+00
1.08285670e-03  1.57103537e+01  3.18960000e-02  9.02560000e+03  9.21600000e-11  0.00000000e+00
1.09368520e-03  1.57115923e+01  3.18990000e-02  8.93700000e+03  9.89300000e-11  0.00000000e+00
1.10462210e-03  1.57126564e+01  3.19020000e-02  8.84940000e+03  1.06200000e-10  0.00000000e+00
1.11566830e-03  1.57137404e+01  3.19040000e-02  8.76250000e+03  1.14000000e-10  0.00000000e+00
1.12682500e-03  1.57145955e+01  3.19070000e-02  8.67660000e+03  1.22400000e-10  0.00000000e+00
1.13809320e-03  1.57153776e+01  3.19100000e-02  8.59150000e+03  1.31400000e-10  0.00000000e+00
1.14947410e-03  1.57160960e+01  3.19130000e-02  8.50720000e+03  1.41100000e-10  0.00000000e+00
1.16096880e-03  1.57168961e+01  3.19160000e-02  8.42380000e+03  1.51500000e-10  0.00000000e+00
1.17257850e-03  1.57174938e+01  3.19190000e-02  8.34120000e+03  1.62700000e-10  0.00000000e+00
1.18430430e-03  1.57180484e+01  3.19230000e-02  8.25940000e+03  1.74700000e-10  0.00000000e+00
1.19614730e-03  1.57185636e+01  3.19260000e-02  8.17840000e+03  1.87600000e-10  0.00000000e+00
1.20810880e-03  1.57190430e+01  3.19290000e-02  8.09820000e+03  2.01400000e-10  0.00000000e+00
1.22018990e-03  1.57194894e+01  3.19320000e-02  8.01890000e+03  2.16300000e-10  0.00000000e+00
1.23239180e-03  1.57199052e+01  3.19350000e-02  7.94030000e+03  2.32300000e-10  0.00000000e+00
1.24471570e-03  1.57202925e+01  3.19380000e-02  7.86240000e+03  2.49500000e-10  0.00000000e+00
1.25716280e-03  1.57206532e+01  3.19420000e-02  7.78540000e+03  2.67900000e-10  0.00000000e+00
1.26973440e-03  1.57209888e+01  3.19450000e-02  7.70910000e+03  2.87700000e-10  0.00000000e+00
1.28243180e-03  1.57213008e+01  3.19480000e-02  7.63360000e+03  3.09000000e-10  0.00000000e+00
1.29525610e-03  1.57215905e+01  3.19520000e-02  7.55880000e+03  3.31800000e-10  0.00000000e+00
1.30820860e-03  1.57218587e+01  3.19550000e-02  7.48480000e+03  3.56300000e-10  0.00000000e+00
1.32129070e-03  1.57221067e+01  3.19590000e-02  7.41150000e+03  3.82600000e-10  0.00000000e+00
1.33450360e-03  1.57223351e+01  3.19620000e-02  7.33890000e+03  4.10900000e-10  0.00000000e+00
1.34784860e-03  1.57225447e+01  3.19660000e-02  7.26700000e+03  4.41200000e-10  0.00000000e+00
1.36132710e-03  1.57227362e+01  3.19690000e-02  7.19590000e+03  4.73800000e-10  0.00000000e+00
1.37494030e-03  1.57229103e+01  3.19730000e-02  7.12540000e+03  5.08700000e-10  0.00000000e+00
1.38868970e-03  1.57230673e+01  3.19770000e-02  7.05570000e+03  5.46200000e-10  0.00000000e+00
1.40257660e-03  1.57232079e+01  3.19800000e-02  6.98660000e+03  5.86500000e-10  0.00000000e+00
1.41660240e-03  1.57233324e+01  3.19840000e-02  6.91830000e+03  6.29700000e-10  0.00000000e+00
1.43076840e-03  1.57234411e+01  3.19880000e-02  6.85060000e+03  6.76000000e-10  0.00000000e+00
1.44507600e-03  1.57235345e+01  3.19910000e-02  6.78360000e+03  7.25700000e-10  0.00000000e+00
1.45952680e-03  1.57236128e+01  3.19950000e-02  6.71720000e+03  7.79100000e-10  0.00000000e+00
1.47412200e-03  1.57236762e+01  3.19990000e-02  6.65150000e+03  8.36300000e-10  0.00000000e+00
1.48886320e-03  1.57237250e+01  3.20030000e-02  6.58640000e+03  8.97700000e-10  0.00000000e+00
1.50375190e-03  1.57237593e+01  3.20070000e-02  6.52200000e+03  9.63500000e-10  0.00000000e+00
1.51878940e-03  1.57237794e+01  3.20110000e-02  6.45830000e+03  1.03400000e-09  0.00000000e+00
1.53397720e-03  1.57237853e+01  3.20150000e-02  6.39510000e+03  1.11000000e-09  0.00000000e+00
1.54931700e-03  1.57237772e+01  3.20190000e-02  6.33260000e+03  1.19100000e-09  0.00000000e+00
1.56481020e-03  1.57237551e+01  3.20230000e-02  6.27070000e+03  1.27800000e-09  0.00000000e+00
1.58045820e-03  1.57237192e+01  3.20270000e-02  6.20940000e+03  1.37100000e-09  0.00000000e+00
1.59626280e-03  1.57236695e+01  3.20320000e-02  6.14880000e+03  1.47100000e-09  0.00000000e+00
1.61222540e-03  1.57236060e+01  3.20360000e-02  6.08870000e+03  1.57900000e-09  0.00000000e+00
1.62834770e-03  1.57235288e+01  3.20400000e-02  6.02920000e+03  1.69400000e-09  0.00000000e+00
1.64463110e-03  1.57234378e+01  3.20440000e-02  5.97030000e+03  1.81700000e-09  0.00000000e+00
1.66107740e-03  1.57233330e+01  3.20490000e-02  5.91200000e+03  1.94900000e-09  0.00000000e+00
1.67768820e-03  1.57232145e+01  3.20530000e-02  5.85430000e+03  2.09000000e-09  0.00000000e+00
1.69446500e-03  1.57230821e+01  3.20580000e-02  5.79710000e+03  2.24200000e-09  0.00000000e+00
1.71140970e-03  1.57229358e+01  3.20620000e-02  5.74060000e+03  2.40400000e-09  0.00000000e+00
1.72852380e-03  1.57227756e+01  3.20670000e-02  5.68450000e+03  2.57800000e-09  0.00000000e+00
1.74580900e-03  1.57226013e+01  3.20710000e-02  5.62910000e+03  2.76400000e-09  0.00000000e+00
1.76326710e-03  1.57224129e+01  3.20760000e-02  5.57410000e+03  2.96300000e-09  0.00000000e+00
1.78089970e-03  1.57222103e+01  3.20810000e-02  5.51980000e+03  3.17600000e-09  0.00000000e+00
1.79870870e-03  1.57219934e+01  3.20860000e-02  5.46590000e+03  3.40500000e-09  0.00000000e+00
1.81669580e-03  1.57217619e+01  3.20900000e-02  5.41260000e+03  3.64900000e-09  0.00000000e+00
1.83486270e-03  1.57215159e+01  3.20950000e-02  5.35980000e+03  3.91100000e-09  0.00000000e+00
1.85321130e-03  1.57212552e+01  3.21000000e-02  5.30760000e+03  4.19100000e-09  0.00000000e+00
1.87174340e-03  1.57209795e+01  3.21050000e-02  5.25580000e+03  4.49100000e-09  0.00000000e+00
1.89046080e-03  1.57206888e+01  3.21100000e-02  5.20460000e+03  4.81100000e-09  0.00000000e+00
1.90936540e-03  1.57203829e+01  3.21150000e-02  5.15390000e+03  5.15400000e-09  0.00000000e+00
1.92845900e-03  1.57200615e+01  3.21200000e-02  5.10370000e+03  5.52100000e-09  0.00000000e+00
1.94774360e-03  1.57197246e+01  3.21250000e-02  5.05390000e+03  5.91400000e-09  0.00000000e+00
1.96722100e-03  1.57193718e+01  3.21310000e-02  5.00470000e+03  6.33400000e-09  0.00000000e+00
1.98689320e-03  1.57190030e+01  3.21360000e-02  4.95600000e+03  6.78300000e-09  0.00000000e+00
2.00676210e-03  1.57186179e+01  3.21410000e-02  4.90770000e+03  7.26300000e-09  0.00000000e+00
2.02682970e-03  1.57182164e+01  3.21470000e-02  4.86000000e+03  7.77600000e-09  0.00000000e+00
2.04709800e-03  1.57177981e+01  3.21520000e-02  4.81260000e+03  8.32400000e-09  0.00000000e+00
2.06756900e-03  1.57173629e+01  3.21580000e-02  4.76580000e+03  8.91100000e-09  0.00000000e+00
2.08824460e-03  1.57169105e+01  3.21630000e-02  4.71940000e+03  9.53700000e-09  0.00000000e+00
2.10912710e-03  1.57164405e+01  3.21690000e-02  4.67350000e+03  1.02100000e-08  0.00000000e+00
2.13021830e-03  1.57159528e+01  3.21740000e-02  4.62810000e+03  1.09200000e-08  0.00000000e+00
2.15152050e-03  1.57154470e+01  3.21800000e-02  4.58310000e+03  1.16900000e-08  0.00000000e+00
2.17303570e-03  1.57149229e+01  3.21860000e-02  4.53850000e+03  1.25000000e-08  0.00000000e+00
2.19476600e-03  1.57143801e+01  3.21920000e-02  4.49440000e+03  1.33700000e-08  0.00000000e+00
2.21671360e-03  1.57138183e+01  3.21980000e-02  4.45070000e+03  1.43100000e-08  0.00000000e+00
2.23888080e-03  1.57132372e+01  3.22040000e-02  4.40750000e+03  1.53000000e-08  0.00000000e+00
2.26126950e-03  1.57126365e+01  3.22100000e-02  4.36460000e+03  1.63600000e-08  0.00000000e+00
2.28388220e-03  1.57120158e+01  3.22160000e-02  4.32220000e+03  1.74900000e-08  0.00000000e+00
2.30672100e-03  1.57113747e+01  3.22220000e-02  4.28030000e+03  1.87000000e-08  0.00000000e+00
2.32978820e-03  1.57107129e+01  3.22280000e-02  4.23870000e+03  1.99900000e-08  0.00000000e+00
2.35308610e-03  1.57100300e+01  3.22340000e-02  4.19760000e+03  2.13700000e-08  0.00000000e+00
2.37661690e-03  1.57093257e+01  3.22410000e-02  4.15680000e+03  2.28400000e-08  0.00000000e+00
2.40038310e-03  1.57085994e+01  3.22470000e-02  4.11650000e+03  2.44100000e-08  0.00000000e+00
2.42438690e-03  1.57078509e+01  3.22540000e-02  4.07650000e+03  2.60800000e-08  0.00000000e+00
2.44863070e-03  1.57070796e+01  3.22600000e-02  4.03700000e+03  2.78600000e-08  0.00000000e+00
2.47311700e-03  1.57062853e+01  3.22670000e-02  3.99790000e+03  2.97700000e-08  0.00000000e+00
2.49784810e-03  1.57054673e+01  3.22740000e-02  3.95910000e+03  3.17900000e-08  0.00000000e+00
2.52282660e-03  1.57046253e+01  3.22800000e-02  3.92070000e+03  3.39600000e-08  0.00000000e+00
2.54805480e-03  1.57037587e+01  3.22870000e-02  3.88270000e+03  3.62600000e-08  0.00000000e+00
2.57353540e-03  1.57028672e+01  3.22940000e-02  3.84510000e+03  3.87200000e-08  0.00000000e+00
2.59927070e-03  1.57019502e+01  3.23010000e-02  3.80790000e+03  4.13400000e-08  0.00000000e+00
2.62526340e-03  1.57010071e+01  3.23080000e-02  3.77100000e+03  4.41300000e-08  0.00000000e+00
2.65151600e-03  1.57000376e+01  3.23150000e-02  3.73450000e+03  4.71000000e-08  0.00000000e+00
2.67803110e-03  1.56990410e+01  3.23230000e-02  3.69830000e+03  5.02700000e-08  0.00000000e+00
2.70481140e-03  1.56980168e+01  3.23300000e-02  3.66250000e+03  5.36400000e-08  0.00000000e+00
2.73185950e-03  1.56969645e+01  3.23370000e-02  3.62710000e+03  5.72300000e-08  0.00000000e+00
2.75917810e-03  1.56958834e+01  3.23450000e-02  3.59200000e+03  6.10600000e-08  0.00000000e+00
2.78676980e-03  1.56947730e+01  3.23520000e-02  3.55730000e+03  6.51300000e-08  0.00000000e+00
2.81463750e-03  1.56936326e+01  3.23600000e-02  3.52290000e+03  6.94700000e-08  0.00000000e+00
2.84278380e-03  1.56924617e+01  3.23670000e-02  3.48880000e+03  7.40900000e-08  0.00000000e+00
2.87121160e-03  1.56912596e+01  3.23750000e-02  3.45510000e+03  7.90000000e-08  0.00000000e+00
2.89992370e-03  1.56900257e+01  3.23830000e-02  3.42170000e+03  8.42300000e-08  0.00000000e+00
2.92892290e-03  1.56887593e+01  3.23910000e-02  3.38870000e+03  8.97900000e-08  0.00000000e+00
2.95821210e-03  1.56874596e+01  3.23990000e-02  3.35600000e+03  9.57200000e-08  0.00000000e+00
2.98779420e-03  1.56861261e+01  3.24070000e-02  3.32360000e+03  1.02000000e-07  0.00000000e+00
3.01767220e-03  1.56847579e+01  3.24150000e-02  3.29150000e+03  1.08700000e-07  0.00000000e+00
3.04784880e-03  1.56833543e+01  3.24240000e-02  3.25970000e+03  1.15800000e-07  0.00000000e+00
3.07832730e-03  1.56819146e+01  3.24320000e-02  3.22830000e+03  1.23400000e-07  0.00000000e+00
3.10911050e-03  1.56804381e+01  3.24400000e-02  3.19720000e+03  1.31500000e-07  0.00000000e+00
3.14020160e-03  1.56789238e+01  3.24490000e-02  3.16630000e+03  1.40000000e-07  0.00000000e+00
3.17160360e-03  1.56773709e+01  3.24580000e-02  3.13580000e+03  1.49100000e-07  0.00000000e+00
3.20331960e-03  1.56757787e+01  3.24660000e-02  3.10560000e+03  1.58800000e-07  0.00000000e+00
3.23535280e-03  1.56741463e+01  3.24750000e-02  3.07570000e+03  1.69100000e-07  0.00000000e+00
3.26770630e-03  1.56724727e+01  3.24840000e-02  3.04610000e+03  1.80000000e-07  0.00000000e+00
3.30038330e-03  1.56707572e+01  3.24930000e-02  3.01680000e+03  1.91600000e-07  0.00000000e+00
3.33338710e-03  1.56689986e+01  3.25020000e-02  2.98770000e+03  2.03900000e-07  0.00000000e+00
3.36672100e-03  1.56671962e+01  3.25110000e-02  2.95900000e+03  2.17000000e-07  0.00000000e+00
3.40038810e-03  1.56653488e+01  3.25210000e-02  2.93050000e+03  2.31000000e-07  0.00000000e+00
3.43439200e-03  1.56634556e+01  3.25300000e-02  2.90230000e+03  2.45700000e-07  0.00000000e+00
3.46873590e-03  1.56615154e+01  3.25400000e-02  2.87440000e+03  2.61400000e-07  0.00000000e+00
3.50342320e-03  1.56595273e+01  3.25490000e-02  2.84680000e+03  2.78000000e-07  0.00000000e+00
3.53845740e-03  1.56574900e+01  3.25590000e-02  2.81950000e+03  2.95700000e-07  0.00000000e+00
3.57384190e-03  1.56554026e+01  3.25690000e-02  2.79240000e+03  3.14400000e-07  0.00000000e+00
3.60958030e-03  1.56532638e+01  3.25790000e-02  2.76560000e+03  3.34300000e-07  0.00000000e+00
3.64567610e-03  1.56510725e+01  3.25890000e-02  2.73910000e+03  3.55500000e-07  0.00000000e+00
3.68213280e-03  1.56488275e+01  3.25990000e-02  2.71280000e+03  3.77800000e-07  0.00000000e+00
3.71895410e-03  1.56465276e+01  3.26090000e-02  2.68680000e+03  4.01600000e-07  0.00000000e+00
3.75614360e-03  1.56441713e+01  3.26190000e-02  2.66100000e+03  4.26800000e-07  0.00000000e+00
3.79370500e-03  1.56417576e+01  3.26300000e-02  2.63550000e+03  4.53500000e-07  0.00000000e+00
3.83164200e-03  1.56392849e+01  3.26400000e-02  2.61030000e+03  4.81800000e-07  0.00000000e+00
3.86995840e-03  1.56367520e+01  3.26510000e-02  2.58530000e+03  5.11900000e-07  0.00000000e+00
3.90865800e-03  1.56341574e+01  3.26620000e-02  2.56050000e+03  5.43700000e-07  0.00000000e+00
3.94774450e-03  1.56314997e+01  3.26730000e-02  2.53600000e+03  5.77400000e-07  0.00000000e+00
3.98722190e-03  1.56287773e+01  3.26840000e-02  2.51170000e+03  6.13200000e-07  0.00000000e+00
4.02709410e-03  1.56259888e+01  3.26950000e-02  2.48770000e+03  6.51100000e-07  0.00000000e+00
4.06736500e-03  1.56231325e+01  3.27060000e-02  2.46390000e+03  6.91200000e-07  0.00000000e+00
4.10803860e-03  1.56202068e+01  3.27180000e-02  2.44040000e+03  7.33700000e-07  0.00000000e+00
4.14911890e-03  1.56172101e+01  3.27290000e-02  2.41710000e+03  7.78800000e-07  0.00000000e+00
4.19061010e-03  1.56141406e+01  3.27410000e-02  2.39400000e+03  8.26500000e-07  0.00000000e+00
4.23251620e-03  1.56109965e+01  3.27530000e-02  2.37120000e+03  8.77000000e-07  0.00000000e+00
4.27484130e-03  1.56077761e+01  3.27640000e-02  2.34850000e+03  9.30500000e-07  0.00000000e+00
4.31758960e-03  1.56044775e+01  3.27770000e-02  2.32610000e+03  9.87100000e-07  0.00000000e+00
4.36076550e-03  1.56010987e+01  3.27890000e-02  2.30400000e+03  1.04700000e-06  0.00000000e+00
4.40437310e-03  1.55976378e+01  3.28010000e-02  2.28200000e+03  1.11000000e-06  0.00000000e+00
4.44841680e-03  1.55940927e+01  3.28130000e-02  2.26030000e+03  1.17800000e-06  0.00000000e+00
4.49290090e-03  1.55904613e+01  3.28260000e-02  2.23870000e+03  1.24900000e-06  0.00000000e+00
4.53782990e-03  1.55867415e+01  3.28390000e-02  2.21740000e+03  1.32400000e-06  0.00000000e+00
4.58320820e-03  1.55829310e+01  3.28520000e-02  2.19630000e+03  1.40300000e-06  0.00000000e+00
4.62904020e-03  1.55790276e+01  3.28650000e-02  2.17550000e+03  1.48700000e-06  0.00000000e+00
4.67533060e-03  1.55750288e+01  3.28780000e-02  2.15480000e+03  1.57600000e-06  0.00000000e+00
4.72208380e-03  1.55709323e+01  3.28910000e-02  2.13430000e+03  1.67000000e-06  0.00000000e+00
4.76930460e-03  1.55667355e+01  3.29040000e-02  2.11400000e+03  1.76900000e-06  0.00000000e+00
4.81699760e-03  1.55624359e+01  3.29180000e-02  2.09400000e+03  1.87500000e-06  0.00000000e+00
4.86516750e-03  1.55580308e+01  3.29320000e-02  2.07410000e+03  1.98600000e-06  0.00000000e+00
4.91381920e-03  1.55535174e+01  3.29460000e-02  2.05440000e+03  2.10300000e-06  0.00000000e+00
4.96295730e-03  1.55488928e+01  3.29600000e-02  2.03500000e+03  2.22700000e-06  0.00000000e+00
5.01258680e-03  1.55441543e+01  3.29740000e-02  2.01570000e+03  2.35800000e-06  0.00000000e+00
5.06271270e-03  1.55392987e+01  3.29880000e-02  1.99660000e+03  2.49600000e-06  0.00000000e+00
5.11333970e-03  1.55343229e+01  3.30030000e-02  1.97770000e+03  2.64300000e-06  0.00000000e+00
5.16447310e-03  1.55292237e+01  3.30170000e-02  1.95900000e+03  2.79700000e-06  0.00000000e+00
5.21611780e-03  1.55239978e+01  3.30320000e-02  1.94050000e+03  2.96000000e-06  0.00000000e+00
5.26827890e-03  1.55186417e+01  3.30470000e-02  1.92210000e+03  3.13200000e-06  0.00000000e+00
5.32096160e-03  1.55131520e+01  3.30620000e-02  1.90400000e+03  3.31400000e-06  0.00000000e+00
5.37417120e-03  1.55075248e+01  3.30780000e-02  1.88600000e+03  3.50600000e-06  0.00000000e+00
5.42791290e-03  1.55017565e+01  3.30930000e-02  1.86820000e+03  3.70800000e-06  0.00000000e+00
5.48219190e-03  1.54958430e+01  3.31090000e-02  1.85060000e+03  3.92200000e-06  0.00000000e+00
5.53701380e-03  1.54897804e+01  3.31250000e-02  1.83310000e+03  4.14800000e-06  0.00000000e+00
5.59238390e-03  1.54835644e+01  3.31410000e-02  1.81580000e+03  4.38500000e-06  0.00000000e+00
5.64830770e-03  1.54771908e+01  3.31570000e-02  1.79870000e+03  4.63600000e-06  0.00000000e+00
5.70479070e-03  1.54706549e+01  3.31730000e-02  1.78180000e+03  4.90100000e-06  0.00000000e+00
5.76183850e-03  1.54639521e+01  3.31900000e-02  1.76510000e+03  5.18000000e-06  0.00000000e+00
5.81945690e-03  1.54570777e+01  3.32070000e-02  1.74850000e+03  5.47500000e-06  0.00000000e+00
5.87765140e-03  1.54500265e+01  3.32240000e-02  1.73200000e+03  5.78500000e-06  0.00000000e+00
5.93642780e-03  1.54427934e+01  3.32410000e-02  1.71580000e+03  6.11200000e-06  0.00000000e+00
5.99579210e-03  1.54353731e+01  3.32580000e-02  1.69970000e+03  6.45700000e-06  0.00000000e+00
6.05574990e-03  1.54277599e+01  3.32760000e-02  1.68370000e+03  6.82100000e-06  0.00000000e+00
6.11630740e-03  1.54199480e+01  3.32930000e-02  1.66790000e+03  7.20400000e-06  0.00000000e+00
6.17747040e-03  1.54119315e+01  3.33110000e-02  1.65230000e+03  7.60800000e-06  0.00000000e+00
6.23924500e-03  1.54037040e+01  3.33290000e-02  1.63690000e+03  8.03300000e-06  0.00000000e+00
6.30163740e-03  1.53952591e+01  3.33480000e-02  1.62150000e+03  8.48100000e-06  0.00000000e+00
6.36465370e-03  1.53865900e+01  3.33660000e-02  1.60640000e+03  8.95300000e-06  0.00000000e+00
6.42830020e-03  1.53776898e+01  3.33850000e-02  1.59140000e+03  9.45000000e-06  0.00000000e+00
6.49258320e-03  1.53685510e+01  3.34040000e-02  1.57650000e+03  9.97400000e-06  0.00000000e+00
6.55750890e-03  1.53591662e+01  3.34230000e-02  1.56180000e+03  1.05200000e-05  0.00000000e+00
6.62308400e-03  1.53495273e+01  3.34430000e-02  1.54720000e+03  1.11000000e-05  0.00000000e+00
6.68931470e-03  1.53396262e+01  3.34620000e-02  1.53280000e+03  1.17200000e-05  0.00000000e+00
6.75620780e-03  1.53294543e+01  3.34820000e-02  1.51850000e+03  1.23600000e-05  0.00000000e+00
6.82376980e-03  1.53190026e+01  3.35020000e-02  1.50440000e+03  1.30300000e-05  0.00000000e+00
6.89200750e-03  1.53082617e+01  3.35230000e-02  1.49040000e+03  1.37500000e-05  0.00000000e+00
6.96092750e-03  1.52972220e+01  3.35430000e-02  1.47660000e+03  1.44900000e-05  0.00000000e+00
7.03053670e-03  1.52858731e+01  3.35640000e-02  1.46290000e+03  1.52800000e-05  0.00000000e+00
7.10084200e-03  1.52742045e+01  3.35850000e-02  1.44930000e+03  1.61100000e-05  0.00000000e+00
