#  Nd:    Z = 60;   Atomic weight = 144.2400 g/mol ;    nominal density:   [INLINE] = 6.9940E+00 g/cm3
#         a(barns/atom) = (cm2/g)    2.39516E+02
#         E(eV) (cm2/g) = f2(e/atom)    2.91738E+05
#         18 edges. Edge energies (keV):
# K      4.35689E+01  L I    7.12600E+00  L II   6.72150E+00  L III  6.20790E+00
# M I    1.57530E+00  M II   1.40280E+00  M III  1.29740E+00  M IV   9.99500E-01
# M V    9.77700E-01  N I    3.15200E-01  N II   2.43300E-01  N III  2.24600E-01
# N IV   1.17500E-01  N V    1.17500E-01  N VI   3.00000E-03  O I    3.75000E-02
# O II   2.11000E-02  O III  2.11000E-02
#         Relativistic correction estimate frel (H82,3/5CL) = -8.4384E-01, -5.1240E-01 e/atom
#         Nuclear Thomson correction fNT = -1.3692E-02 e/atom
#    _________________________________________________________________________________________________________
#  Form Factors, Attenuation and Scattering Cross-sections
#  Z=60, E = 0.001 - 1000 keV
#                                                             Attenuation
#    E         f1            f2                     [INLINE] (coh+inc) Coefficient    K       wavelength
#    keV       e/atom       e/atom      cm2/g       cm2/g      cm2/g          cm2/g        nm
1.01000000e-03  1.71128523e+01  5.56320000e-02  1.60690000e+04  2.46200000e-10  0.00000000e+00
1.02010000e-03  1.71242017e+01  5.56350000e-02  1.59110000e+04  2.59700000e-10  0.00000000e+00
1.03030100e-03  1.71311839e+01  5.56390000e-02  1.57550000e+04  2.74000000e-10  0.00000000e+00
1.04060400e-03  1.71359330e+01  5.56420000e-02  1.56000000e+04  2.89200000e-10  0.00000000e+00
1.05101010e-03  1.71396446e+01  5.56460000e-02  1.54460000e+04  3.05300000e-10  0.00000000e+00
1.06152010e-03  1.71426923e+01  5.56490000e-02  1.52940000e+04  3.22400000e-10  0.00000000e+00
1.07213530e-03  1.71451395e+01  5.56530000e-02  1.51440000e+04  3.40600000e-10  0.00000000e+00
1.08285670e-03  1.71472914e+01  5.56570000e-02  1.49950000e+04  3.59900000e-10  0.00000000e+00
1.09368520e-03  1.71493700e+01  5.56600000e-02  1.48470000e+04  3.80300000e-10  0.00000000e+00
1.10462210e-03  1.71510901e+01  5.56640000e-02  1.47010000e+04  4.02100000e-10  0.00000000e+00
1.11566830e-03  1.71527278e+01  5.56680000e-02  1.45570000e+04  4.25200000e-10  0.00000000e+00
1.12682500e-03  1.71541522e+01  5.56720000e-02  1.44140000e+04  4.49700000e-10  0.00000000e+00
1.13809320e-03  1.71554615e+01  5.56760000e-02  1.42720000e+04  4.75800000e-10  0.00000000e+00
1.14947410e-03  1.71569161e+01  5.56800000e-02  1.41320000e+04  5.03500000e-10  0.00000000e+00
1.16096880e-03  1.71580107e+01  5.56840000e-02  1.39930000e+04  5.32900000e-10  0.00000000e+00
1.17257850e-03  1.71590313e+01  5.56880000e-02  1.38550000e+04  5.64300000e-10  0.00000000e+00
1.18430430e-03  1.71599856e+01  5.56920000e-02  1.37190000e+04  5.97600000e-10  0.00000000e+00
1.19614730e-03  1.71610322e+01  5.56960000e-02  1.35840000e+04  6.33000000e-10  0.00000000e+00
1.20810880e-03  1.71618586e+01  5.57000000e-02  1.34510000e+04  6.70700000e-10  0.00000000e+00
1.22018990e-03  1.71626367e+01  5.57040000e-02  1.33180000e+04  7.10800000e-10  0.00000000e+00
1.23239180e-03  1.71634194e+01  5.57080000e-02  1.31880000e+04  7.53500000e-10  0.00000000e+00
1.24471570e-03  1.71641108e+01  5.57120000e-02  1.30580000e+04  7.98900000e-10  0.00000000e+00
1.25716280e-03  1.71647638e+01  5.57170000e-02  1.29300000e+04  8.47300000e-10  0.00000000e+00
1.26973440e-03  1.71653809e+01  5.57210000e-02  1.28030000e+04  8.98700000e-10  0.00000000e+00
1.28243180e-03  1.71659643e+01  5.57250000e-02  1.26770000e+04  9.53600000e-10  0.00000000e+00
1.29525610e-03  1.71665157e+01  5.57300000e-02  1.25520000e+04  1.01200000e-09  0.00000000e+00
1.30820860e-03  1.71670371e+01  5.57340000e-02  1.24290000e+04  1.07400000e-09  0.00000000e+00
1.32129070e-03  1.71675297e+01  5.57390000e-02  1.23070000e+04  1.14000000e-09  0.00000000e+00
1.33450360e-03  1.71679950e+01  5.57430000e-02  1.21860000e+04  1.21100000e-09  0.00000000e+00
1.34784860e-03  1.71684341e+01  5.57480000e-02  1.20670000e+04  1.28600000e-09  0.00000000e+00
1.36132710e-03  1.71688480e+01  5.57530000e-02  1.19480000e+04  1.36600000e-09  0.00000000e+00
1.37494030e-03  1.71692377e+01  5.57570000e-02  1.18310000e+04  1.45100000e-09  0.00000000e+00
1.38868970e-03  1.71696040e+01  5.57620000e-02  1.17150000e+04  1.54200000e-09  0.00000000e+00
1.40257660e-03  1.71699477e+01  5.57670000e-02  1.16000000e+04  1.63900000e-09  0.00000000e+00
1.41660240e-03  1.71702694e+01  5.57720000e-02  1.14860000e+04  1.74200000e-09  0.00000000e+00
1.43076840e-03  1.71705696e+01  5.57770000e-02  1.13730000e+04  1.85200000e-09  0.00000000e+00
1.44507600e-03  1.71708489e+01  5.57820000e-02  1.12610000e+04  1.97000000e-09  0.00000000e+00
1.45952680e-03  1.71711077e+01  5.57870000e-02  1.11510000e+04  2.09500000e-09  0.00000000e+00
1.47412200e-03  1.71713465e+01  5.57920000e-02  1.10420000e+04  2.22800000e-09  0.00000000e+00
1.48886320e-03  1.71715656e+01  5.57970000e-02  1.09330000e+04  2.37000000e-09  0.00000000e+00
1.50375190e-03  1.71717653e+01  5.58020000e-02  1.08260000e+04  2.52100000e-09  0.00000000e+00
1.51878940e-03  1.71719457e+01  5.58070000e-02  1.07200000e+04  2.68300000e-09  0.00000000e+00
1.53397720e-03  1.71721073e+01  5.58130000e-02  1.06150000e+04  2.85500000e-09  0.00000000e+00
1.54931700e-03  1.71722501e+01  5.58180000e-02  1.05110000e+04  3.03900000e-09  0.00000000e+00
1.56481020e-03  1.71723743e+01  5.58230000e-02  1.04080000e+04  3.23400000e-09  0.00000000e+00
1.58045820e-03  1.71724799e+01  5.58290000e-02  1.03050000e+04  3.44300000e-09  0.00000000e+00
1.59626280e-03  1.71725672e+01  5.58340000e-02  1.02040000e+04  3.66500000e-09  0.00000000e+00
1.61222540e-03  1.71726361e+01  5.58400000e-02  1.01040000e+04  3.90300000e-09  0.00000000e+00
1.62834770e-03  1.71726866e+01  5.58450000e-02  1.00050000e+04  4.15600000e-09  0.00000000e+00
1.64463110e-03  1.71727188e+01  5.58510000e-02  9.90730000e+03  4.42500000e-09  0.00000000e+00
1.66107740e-03  1.71727325e+01  5.58570000e-02  9.81020000e+03  4.71300000e-09  0.00000000e+00
1.67768820e-03  1.71727278e+01  5.58620000e-02  9.71410000e+03  5.02000000e-09  0.00000000e+00
1.69446500e-03  1.71727046e+01  5.58680000e-02  9.61890000e+03  5.34600000e-09  0.00000000e+00
1.71140970e-03  1.71726628e+01  5.58740000e-02  9.52470000e+03  5.69500000e-09  0.00000000e+00
1.72852380e-03  1.71726021e+01  5.58800000e-02  9.43140000e+03  6.06700000e-09  0.00000000e+00
1.74580900e-03  1.71725225e+01  5.58860000e-02  9.33900000e+03  6.46300000e-09  0.00000000e+00
1.76326710e-03  1.71724238e+01  5.58920000e-02  9.24760000e+03  6.88500000e-09  0.00000000e+00
1.78089970e-03  1.71723058e+01  5.58980000e-02  9.15700000e+03  7.33600000e-09  0.00000000e+00
1.79870870e-03  1.71721682e+01  5.59050000e-02  9.06730000e+03  7.81600000e-09  0.00000000e+00
1.81669580e-03  1.71720108e+01  5.59110000e-02  8.97860000e+03  8.32700000e-09  0.00000000e+00
1.83486270e-03  1.71718332e+01  5.59170000e-02  8.89070000e+03  8.87300000e-09  0.00000000e+00
1.85321130e-03  1.71716359e+01  5.59240000e-02  8.80370000e+03  9.45500000e-09  0.00000000e+00
1.87174340e-03  1.71714172e+01  5.59300000e-02  8.71750000e+03  1.00700000e-08  0.00000000e+00
1.89046080e-03  1.71711774e+01  5.59370000e-02  8.63220000e+03  1.07300000e-08  0.00000000e+00
1.90936540e-03  1.71709161e+01  5.59430000e-02  8.54770000e+03  1.14400000e-08  0.00000000e+00
1.92845900e-03  1.71706329e+01  5.59500000e-02  8.46410000e+03  1.21900000e-08  0.00000000e+00
1.94774360e-03  1.71703273e+01  5.59570000e-02  8.38130000e+03  1.29900000e-08  0.00000000e+00
1.96722100e-03  1.71699988e+01  5.59630000e-02  8.29940000e+03  1.38400000e-08  0.00000000e+00
1.98689320e-03  1.71696470e+01  5.59700000e-02  8.21820000e+03  1.47500000e-08  0.00000000e+00
2.00676210e-03  1.71692707e+01  5.59770000e-02  8.13780000e+03  1.57200000e-08  0.00000000e+00
2.02682970e-03  1.71688704e+01  5.59840000e-02  8.05830000e+03  1.67500000e-08  0.00000000e+00
2.04709800e-03  1.71684448e+01  5.59910000e-02  7.97950000e+03  1.78400000e-08  0.00000000e+00
2.06756900e-03  1.71679933e+01  5.59980000e-02  7.90150000e+03  1.90100000e-08  0.00000000e+00
2.08824460e-03  1.71675152e+01  5.60060000e-02  7.82430000e+03  2.02600000e-08  0.00000000e+00
2.10912710e-03  1.71670097e+01  5.60130000e-02  7.74780000e+03  2.15900000e-08  0.00000000e+00
2.13021830e-03  1.71664759e+01  5.60200000e-02  7.67210000e+03  2.30000000e-08  0.00000000e+00
2.15152050e-03  1.71659130e+01  5.60280000e-02  7.59720000e+03  2.45000000e-08  0.00000000e+00
2.17303570e-03  1.71653199e+01  5.60350000e-02  7.52300000e+03  2.61100000e-08  0.00000000e+00
2.19476600e-03  1.71646956e+01  5.60430000e-02  7.44950000e+03  2.78100000e-08  0.00000000e+00
2.21671360e-03  1.71640390e+01  5.60510000e-02  7.37670000e+03  2.96300000e-08  0.00000000e+00
2.23888080e-03  1.71633487e+01  5.60590000e-02  7.30470000e+03  3.15600000e-08  0.00000000e+00
2.26126950e-03  1.71626235e+01  5.60660000e-02  7.23340000e+03  3.36200000e-08  0.00000000e+00
2.28388220e-03  1.71618619e+01  5.60740000e-02  7.16280000e+03  3.58100000e-08  0.00000000e+00
2.30672100e-03  1.71610623e+01  5.60820000e-02  7.09290000e+03  3.81400000e-08  0.00000000e+00
2.32978820e-03  1.71602229e+01  5.60900000e-02  7.02370000e+03  4.06300000e-08  0.00000000e+00
2.35308610e-03  1.71593419e+01  5.60990000e-02  6.95520000e+03  4.32700000e-08  0.00000000e+00
2.37661690e-03  1.71584170e+01  5.61070000e-02  6.88730000e+03  4.60800000e-08  0.00000000e+00
2.40038310e-03  1.71574460e+01  5.61150000e-02  6.82010000e+03  4.90700000e-08  0.00000000e+00
2.42438690e-03  1.71564262e+01  5.61240000e-02  6.75360000e+03  5.22500000e-08  0.00000000e+00
2.44863070e-03  1.71553545e+01  5.61320000e-02  6.68780000e+03  5.56300000e-08  0.00000000e+00
2.47311700e-03  1.71542288e+01  5.61410000e-02  6.62260000e+03  5.92300000e-08  0.00000000e+00
2.49784810e-03  1.71530433e+01  5.61500000e-02  6.55800000e+03  6.30500000e-08  0.00000000e+00
2.52282660e-03  1.71517945e+01  5.61580000e-02  6.49410000e+03  6.71200000e-08  0.00000000e+00
2.54805480e-03  1.71504774e+01  5.61670000e-02  6.43080000e+03  7.14500000e-08  0.00000000e+00
2.57353540e-03  1.71490862e+01  5.61760000e-02  6.36820000e+03  7.60500000e-08  0.00000000e+00
2.59927070e-03  1.71476141e+01  5.61850000e-02  6.30620000e+03  8.09400000e-08  0.00000000e+00
2.62526340e-03  1.71460526e+01  5.61950000e-02  6.24470000e+03  8.61300000e-08  0.00000000e+00
2.65151600e-03  1.71443920e+01  5.62040000e-02  6.18390000e+03  9.16600000e-08  0.00000000e+00
2.67803110e-03  1.71426198e+01  5.62130000e-02  6.12370000e+03  9.75300000e-08  0.00000000e+00
2.70481140e-03  1.71407207e+01  5.62230000e-02  6.06410000e+03  1.03800000e-07  0.00000000e+00
2.73185950e-03  1.71386749e+01  5.62320000e-02  6.00510000e+03  1.10400000e-07  0.00000000e+00
2.75917810e-03  1.71364566e+01  5.62420000e-02  5.94670000e+03  1.17400000e-07  0.00000000e+00
2.78676980e-03  1.71340304e+01  5.62520000e-02  5.88880000e+03  1.24900000e-07  0.00000000e+00
2.81463750e-03  1.71313464e+01  5.62670000e-02  5.83210000e+03  1.32900000e-07  0.00000000e+00
2.84278380e-03  1.71283303e+01  5.62780000e-02  5.77550000e+03  1.41300000e-07  0.00000000e+00
2.87121160e-03  1.71248971e+01  5.62900000e-02  5.71950000e+03  1.50300000e-07  0.00000000e+00
2.89992370e-03  1.71207716e+01  5.63030000e-02  5.66420000e+03  1.59800000e-07  0.00000000e+00
2.92892290e-03  1.71155653e+01  5.63170000e-02  5.60950000e+03  1.69900000e-07  0.00000000e+00
2.95821210e-03  1.71081664e+01  5.63380000e-02  5.55610000e+03  1.80600000e-07  0.00000000e+00
2.98779420e-03  1.70929264e+01  5.64120000e-02  5.50820000e+03  1.92000000e-07  0.00000000e+00
3.00000010e-03  1.69188041e+01  7.34020000e-02  7.13810000e+03  1.96800000e-07  0.00000000e+00
3.00040000e-03  1.70551392e+01  8.78130000e-02  8.53830000e+03  1.97000000e-07  0.00000000e+00
3.00080000e-03  1.70623718e+01  8.91340000e-02  8.66560000e+03  1.97200000e-07  0.00000000e+00
3.00160000e-03  1.70697768e+01  8.98280000e-02  8.73080000e+03  1.97500000e-07  0.00000000e+00
3.00320000e-03  1.70771606e+01  9.02090000e-02  8.76320000e+03  1.98100000e-07  0.00000000e+00
3.00640000e-03  1.70844393e+01  9.04640000e-02  8.77860000e+03  1.99400000e-07  0.00000000e+00
3.01280000e-03  1.70915081e+01  9.07190000e-02  8.78460000e+03  2.02000000e-07  0.00000000e+00
3.01767220e-03  1.70946796e+01  9.08730000e-02  8.78530000e+03  2.04100000e-07  0.00000000e+00
3.02560000e-03  1.70981861e+01  9.11040000e-02  8.78450000e+03  2.07400000e-07  0.00000000e+00
3.04784880e-03  1.71036095e+01  9.17230000e-02  8.77960000e+03  2.16900000e-07  0.00000000e+00
3.07832730e-03  1.71072048e+01  9.25610000e-02  8.77220000e+03  2.30500000e-07  0.00000000e+00
3.10911050e-03  1.71091124e+01  9.34140000e-02  8.76530000e+03  2.44900000e-07  0.00000000e+00
3.14020160e-03  1.71101822e+01  9.42840000e-02  8.75940000e+03  2.60200000e-07  0.00000000e+00
3.17160360e-03  1.71107497e+01  9.51740000e-02  8.75450000e+03  2.76500000e-07  0.00000000e+00
3.20331960e-03  1.71109817e+01  9.60830000e-02  8.75060000e+03  2.93700000e-07  0.00000000e+00
3.23535280e-03  1.71109734e+01  9.70180000e-02  8.74830000e+03  3.11900000e-07  0.00000000e+00
3.26770630e-03  1.71107854e+01  9.79690000e-02  8.74660000e+03  3.31300000e-07  0.00000000e+00
3.30038330e-03  1.71104597e+01  9.89410000e-02  8.74590000e+03  3.51800000e-07  0.00000000e+00
3.33338710e-03  1.71100277e+01  9.99300000e-02  8.74580000e+03  3.73600000e-07  0.00000000e+00
3.36672100e-03  1.71095054e+01  1.00930000e-01  8.74560000e+03  3.96700000e-07  0.00000000e+00
3.40038810e-03  1.71089033e+01  1.01930000e-01  8.74500000e+03  4.21100000e-07  0.00000000e+00
3.43439200e-03  1.71082301e+01  1.02940000e-01  8.74430000e+03  4.47100000e-07  0.00000000e+00
3.46873590e-03  1.71074926e+01  1.03960000e-01  8.74330000e+03  4.74500000e-07  0.00000000e+00
3.50342320e-03  1.71066956e+01  1.04980000e-01  8.74200000e+03  5.03600000e-07  0.00000000e+00
3.53845740e-03  1.71058445e+01  1.06010000e-01  8.74050000e+03  5.34400000e-07  0.00000000e+00
3.57384190e-03  1.71049420e+01  1.07050000e-01  8.73870000e+03  5.67100000e-07  0.00000000e+00
3.60958030e-03  1.71039907e+01  1.08100000e-01  8.73670000e+03  6.01600000e-07  0.00000000e+00
3.64567610e-03  1.71029926e+01  1.09150000e-01  8.73440000e+03  6.38200000e-07  0.00000000e+00
3.68213280e-03  1.71019493e+01  1.10210000e-01  8.73180000e+03  6.77000000e-07  0.00000000e+00
3.71895410e-03  1.71008620e+01  1.11270000e-01  8.72900000e+03  7.18000000e-07  0.00000000e+00
3.75614360e-03  1.70997316e+01  1.12350000e-01  8.72590000e+03  7.61500000e-07  0.00000000e+00
3.79370500e-03  1.70985586e+01  1.13430000e-01  8.72250000e+03  8.07400000e-07  0.00000000e+00
3.83164200e-03  1.70973436e+01  1.14510000e-01  8.71890000e+03  8.56100000e-07  0.00000000e+00
3.86995840e-03  1.70960866e+01  1.15610000e-01  8.71500000e+03  9.07600000e-07  0.00000000e+00
3.90865800e-03  1.70947879e+01  1.16710000e-01  8.71090000e+03  9.62100000e-07  0.00000000e+00
3.94774450e-03  1.70934473e+01  1.17820000e-01  8.70650000e+03  1.02000000e-06  0.00000000e+00
3.98722190e-03  1.70920647e+01  1.18930000e-01  8.70190000e+03  1.08100000e-06  0.00000000e+00
4.02709410e-03  1.70906398e+01  1.20050000e-01  8.69710000e+03  1.14500000e-06  0.00000000e+00
4.06736500e-03  1.70891721e+01  1.21180000e-01  8.69210000e+03  1.21300000e-06  0.00000000e+00
4.10803860e-03  1.70876612e+01  1.22320000e-01  8.68680000e+03  1.28500000e-06  0.00000000e+00
4.14911890e-03  1.70861066e+01  1.23470000e-01  8.68130000e+03  1.36200000e-06  0.00000000e+00
4.19061010e-03  1.70845077e+01  1.24620000e-01  8.67570000e+03  1.44200000e-06  0.00000000e+00
4.23251620e-03  1.70828638e+01  1.25780000e-01  8.66990000e+03  1.52800000e-06  0.00000000e+00
4.27484130e-03  1.70811741e+01  1.26950000e-01  8.66380000e+03  1.61800000e-06  0.00000000e+00
4.31758960e-03  1.70794379e+01  1.28130000e-01  8.65770000e+03  1.71300000e-06  0.00000000e+00
4.36076550e-03  1.70776544e+01  1.29320000e-01  8.65130000e+03  1.81300000e-06  0.00000000e+00
4.40437310e-03  1.70758227e+01  1.30510000e-01  8.64490000e+03  1.91900000e-06  0.00000000e+00
4.44841680e-03  1.70739419e+01  1.31720000e-01  8.63830000e+03  2.03200000e-06  0.00000000e+00
4.49290090e-03  1.70720109e+01  1.32930000e-01  8.63160000e+03  2.15000000e-06  0.00000000e+00
4.53782990e-03  1.70700289e+01  1.34150000e-01  8.62480000e+03  2.27500000e-06  0.00000000e+00
4.58320820e-03  1.70679948e+01  1.35390000e-01  8.61790000e+03  2.40800000e-06  0.00000000e+00
4.62904020e-03  1.70659074e+01  1.36630000e-01  8.61090000e+03  2.54700000e-06  0.00000000e+00
4.67533060e-03  1.70637658e+01  1.37880000e-01  8.60390000e+03  2.69400000e-06  0.00000000e+00
4.72208380e-03  1.70615686e+01  1.39150000e-01  8.59680000e+03  2.85000000e-06  0.00000000e+00
4.76930460e-03  1.70593149e+01  1.40420000e-01  8.58970000e+03  3.01400000e-06  0.00000000e+00
4.81699760e-03  1.70570032e+01  1.41710000e-01  8.58250000e+03  3.18700000e-06  0.00000000e+00
4.86516750e-03  1.70546325e+01  1.43010000e-01  8.57540000e+03  3.37000000e-06  0.00000000e+00
4.91381920e-03  1.70522013e+01  1.44320000e-01  8.56830000e+03  3.56300000e-06  0.00000000e+00
4.96295730e-03  1.70497085e+01  1.45640000e-01  8.56110000e+03  3.76600000e-06  0.00000000e+00
5.01258680e-03  1.70471525e+01  1.46970000e-01  8.55410000e+03  3.98100000e-06  0.00000000e+00
5.06271270e-03  1.70445321e+01  1.48320000e-01  8.54700000e+03  4.20700000e-06  0.00000000e+00
5.11333970e-03  1.70418458e+01  1.49680000e-01  8.54000000e+03  4.44600000e-06  0.00000000e+00
5.16447310e-03  1.70390922e+01  1.51060000e-01  8.53310000e+03  4.69800000e-06  0.00000000e+00
5.21611780e-03  1.70362697e+01  1.52450000e-01  8.52630000e+03  4.96300000e-06  0.00000000e+00
5.26827890e-03  1.70333769e+01  1.53850000e-01  8.51960000e+03  5.24300000e-06  0.00000000e+00
5.32096160e-03  1.70304121e+01  1.55270000e-01  8.51300000e+03  5.53800000e-06  0.00000000e+00
5.37417120e-03  1.70273738e+01  1.56700000e-01  8.50660000e+03  5.84800000e-06  0.00000000e+00
5.42791290e-03  1.70242603e+01  1.58150000e-01  8.50020000e+03  6.17600000e-06  0.00000000e+00
5.48219190e-03  1.70210699e+01  1.59620000e-01  8.49410000e+03  6.52100000e-06  0.00000000e+00
5.53701380e-03  1.70178010e+01  1.61100000e-01  8.48810000e+03  6.88400000e-06  0.00000000e+00
5.59238390e-03  1.70144517e+01  1.62600000e-01  8.48230000e+03  7.26700000e-06  0.00000000e+00
5.64830770e-03  1.70110203e+01  1.64120000e-01  8.47670000e+03  7.67000000e-06  0.00000000e+00
5.70479070e-03  1.70075049e+01  1.65650000e-01  8.47130000e+03  8.09400000e-06  0.00000000e+00
5.76183850e-03  1.70039035e+01  1.67210000e-01  8.46610000e+03  8.54100000e-06  0.00000000e+00
5.81945690e-03  1.70002144e+01  1.68780000e-01  8.46120000e+03  9.01200000e-06  0.00000000e+00
5.87765140e-03  1.69964355e+01  1.70370000e-01  8.45650000e+03  9.50800000e-06  0.00000000e+00
5.93642780e-03  1.69925647e+01  1.71990000e-01  8.45200000e+03  1.00300000e-05  0.00000000e+00
5.99579210e-03  1.69886000e+01  1.73620000e-01  8.44790000e+03  1.05800000e-05  0.00000000e+00
6.05574990e-03  1.69845393e+01  1.75280000e-01  8.44400000e+03  1.11600000e-05  0.00000000e+00
6.11630740e-03  1.69803803e+01  1.76950000e-01  8.44040000e+03  1.17600000e-05  0.00000000e+00
6.17747040e-03  1.69761208e+01  1.78650000e-01  8.43720000e+03  1.24000000e-05  0.00000000e+00
6.23924500e-03  1.69717585e+01  1.80380000e-01  8.43420000e+03  1.30800000e-05  0.00000000e+00
6.30163740e-03  1.69672911e+01  1.82130000e-01  8.43160000e+03  1.37800000e-05  0.00000000e+00
6.36465370e-03  1.69627162e+01  1.83900000e-01  8.42930000e+03  1.45300000e-05  0.00000000e+00
6.42830020e-03  1.69580312e+01  1.85690000e-01  8.42740000e+03  1.53100000e-05  0.00000000e+00
6.49258320e-03  1.69532336e+01  1.87520000e-01  8.42590000e+03  1.61300000e-05  0.00000000e+00
6.55750890e-03  1.69483209e+01  1.89360000e-01  8.42470000e+03  1.70000000e-05  0.00000000e+00
