#  Pm:    Z = 61;   Atomic weight = 145.0000 g/mol ;    nominal density:   [INLINE] = 7.2000E+00 g/cm3
#         a(barns/atom) = (cm2/g)    2.40778E+02
#         E(eV) (cm2/g) = f2(e/atom)    2.90209E+05
#         18 edges. Edge energies (keV):
# K      4.51840E+01  L I    7.42790E+00  L II   7.01280E+00  L III  6.45930E+00
# M I    1.64650E+00  M II   1.47140E+00  M III  1.35690E+00  M IV   1.05150E+00
# M V    1.02690E+00  N I    3.30400E-01  N II   2.54400E-01  N III  2.36000E-01
# N IV   1.20400E-01  N V    1.20400E-01  N VI   4.00000E-03  O I    3.75000E-02
# O II   2.11000E-02  O III  2.11000E-02
#         Relativistic correction estimate frel (H82,3/5CL) = -8.8035E-01, -5.3340E-01 e/atom
#         Nuclear Thomson correction fNT = -1.4078E-02 e/atom
#    _________________________________________________________________________________________________________
#  Form Factors, Attenuation and Scattering Cross-sections
#  Z=61, E = 0.001 - 1000 keV
#                                                             Attenuation
#    E         f1            f2                     [INLINE] (coh+inc) Coefficient    K       wavelength
#    keV       e/atom       e/atom      cm2/g       cm2/g      cm2/g          cm2/g        nm
1.01000000e-03  1.62823693e+01  6.05270000e-02  1.73920000e+04  2.02800000e-10  0.00000000e+00
1.02010000e-03  1.62947507e+01  6.05310000e-02  1.72210000e+04  2.15400000e-10  0.00000000e+00
1.03030100e-03  1.63024392e+01  6.05350000e-02  1.70510000e+04  2.28700000e-10  0.00000000e+00
1.04060400e-03  1.63074509e+01  6.05390000e-02  1.68830000e+04  2.43000000e-10  0.00000000e+00
1.05101010e-03  1.63116124e+01  6.05430000e-02  1.67170000e+04  2.58200000e-10  0.00000000e+00
1.06152010e-03  1.63150651e+01  6.05460000e-02  1.65530000e+04  2.74400000e-10  0.00000000e+00
1.07213530e-03  1.63177685e+01  6.05500000e-02  1.63900000e+04  2.91700000e-10  0.00000000e+00
1.08285670e-03  1.63201519e+01  6.05540000e-02  1.62290000e+04  3.10200000e-10  0.00000000e+00
1.09368520e-03  1.63222809e+01  6.05580000e-02  1.60690000e+04  3.29900000e-10  0.00000000e+00
1.10462210e-03  1.63243584e+01  6.05630000e-02  1.59110000e+04  3.50900000e-10  0.00000000e+00
1.11566830e-03  1.63261035e+01  6.05670000e-02  1.57550000e+04  3.73300000e-10  0.00000000e+00
1.12682500e-03  1.63277774e+01  6.05710000e-02  1.56000000e+04  3.97300000e-10  0.00000000e+00
1.13809320e-03  1.63292513e+01  6.05750000e-02  1.54460000e+04  4.22800000e-10  0.00000000e+00
1.14947410e-03  1.63307577e+01  6.05790000e-02  1.52950000e+04  4.50100000e-10  0.00000000e+00
1.16096880e-03  1.63321372e+01  6.05840000e-02  1.51440000e+04  4.79300000e-10  0.00000000e+00
1.17257850e-03  1.63333003e+01  6.05880000e-02  1.49950000e+04  5.10400000e-10  0.00000000e+00
1.18430430e-03  1.63343925e+01  6.05920000e-02  1.48480000e+04  5.43600000e-10  0.00000000e+00
1.19614730e-03  1.63355838e+01  6.05970000e-02  1.47020000e+04  5.79000000e-10  0.00000000e+00
1.20810880e-03  1.63365402e+01  6.06010000e-02  1.45570000e+04  6.16900000e-10  0.00000000e+00
1.22018990e-03  1.63374454e+01  6.06060000e-02  1.44140000e+04  6.57400000e-10  0.00000000e+00
1.23239180e-03  1.63383034e+01  6.06100000e-02  1.42730000e+04  7.00600000e-10  0.00000000e+00
1.24471570e-03  1.63391685e+01  6.06150000e-02  1.41330000e+04  7.46700000e-10  0.00000000e+00
1.25716280e-03  1.63399419e+01  6.06190000e-02  1.39940000e+04  7.96000000e-10  0.00000000e+00
1.26973440e-03  1.63406777e+01  6.06240000e-02  1.38560000e+04  8.48700000e-10  0.00000000e+00
1.28243180e-03  1.63413784e+01  6.06290000e-02  1.37200000e+04  9.04900000e-10  0.00000000e+00
1.29525610e-03  1.63420462e+01  6.06340000e-02  1.35850000e+04  9.65000000e-10  0.00000000e+00
1.30820860e-03  1.63426827e+01  6.06380000e-02  1.34520000e+04  1.02900000e-09  0.00000000e+00
1.32129070e-03  1.63432899e+01  6.06430000e-02  1.33200000e+04  1.09800000e-09  0.00000000e+00
1.33450360e-03  1.63438690e+01  6.06480000e-02  1.31890000e+04  1.17100000e-09  0.00000000e+00
1.34784860e-03  1.63444216e+01  6.06530000e-02  1.30590000e+04  1.24900000e-09  0.00000000e+00
1.36132710e-03  1.63449486e+01  6.06580000e-02  1.29310000e+04  1.33300000e-09  0.00000000e+00
1.37494030e-03  1.63454513e+01  6.06630000e-02  1.28040000e+04  1.42200000e-09  0.00000000e+00
1.38868970e-03  1.63459306e+01  6.06690000e-02  1.26790000e+04  1.51800000e-09  0.00000000e+00
1.40257660e-03  1.63463874e+01  6.06740000e-02  1.25540000e+04  1.62000000e-09  0.00000000e+00
1.41660240e-03  1.63468223e+01  6.06790000e-02  1.24310000e+04  1.72900000e-09  0.00000000e+00
1.43076840e-03  1.63472362e+01  6.06840000e-02  1.23090000e+04  1.84500000e-09  0.00000000e+00
1.44507600e-03  1.63476296e+01  6.06900000e-02  1.21880000e+04  1.97000000e-09  0.00000000e+00
1.45952680e-03  1.63480032e+01  6.06950000e-02  1.20680000e+04  2.10200000e-09  0.00000000e+00
1.47412200e-03  1.63483573e+01  6.07010000e-02  1.19500000e+04  2.24400000e-09  0.00000000e+00
1.48886320e-03  1.63486926e+01  6.07060000e-02  1.18330000e+04  2.39600000e-09  0.00000000e+00
1.50375190e-03  1.63490093e+01  6.07120000e-02  1.17170000e+04  2.55800000e-09  0.00000000e+00
1.51878940e-03  1.63493079e+01  6.07170000e-02  1.16020000e+04  2.73100000e-09  0.00000000e+00
1.53397720e-03  1.63495887e+01  6.07230000e-02  1.14880000e+04  2.91500000e-09  0.00000000e+00
1.54931700e-03  1.63498520e+01  6.07290000e-02  1.13750000e+04  3.11300000e-09  0.00000000e+00
1.56481020e-03  1.63500980e+01  6.07350000e-02  1.12640000e+04  3.32400000e-09  0.00000000e+00
1.58045820e-03  1.63503269e+01  6.07400000e-02  1.11530000e+04  3.54900000e-09  0.00000000e+00
1.59626280e-03  1.63505390e+01  6.07460000e-02  1.10440000e+04  3.78900000e-09  0.00000000e+00
1.61222540e-03  1.63507345e+01  6.07520000e-02  1.09360000e+04  4.04600000e-09  0.00000000e+00
1.62834770e-03  1.63509133e+01  6.07580000e-02  1.08290000e+04  4.32000000e-09  0.00000000e+00
1.64463110e-03  1.63510758e+01  6.07640000e-02  1.07220000e+04  4.61200000e-09  0.00000000e+00
1.66107740e-03  1.63512219e+01  6.07710000e-02  1.06170000e+04  4.92500000e-09  0.00000000e+00
1.67768820e-03  1.63513518e+01  6.07770000e-02  1.05130000e+04  5.25800000e-09  0.00000000e+00
1.69446500e-03  1.63514655e+01  6.07830000e-02  1.04100000e+04  5.61500000e-09  0.00000000e+00
1.71140970e-03  1.63515630e+01  6.07900000e-02  1.03080000e+04  5.99500000e-09  0.00000000e+00
1.72852380e-03  1.63516443e+01  6.07960000e-02  1.02070000e+04  6.40100000e-09  0.00000000e+00
1.74580900e-03  1.63517095e+01  6.08030000e-02  1.01070000e+04  6.83400000e-09  0.00000000e+00
1.76326710e-03  1.63517585e+01  6.08090000e-02  1.00080000e+04  7.29600000e-09  0.00000000e+00
1.78089970e-03  1.63517913e+01  6.08160000e-02  9.91030000e+03  7.78900000e-09  0.00000000e+00
1.79870870e-03  1.63518078e+01  6.08220000e-02  9.81330000e+03  8.31600000e-09  0.00000000e+00
1.81669580e-03  1.63518079e+01  6.08290000e-02  9.71720000e+03  8.87700000e-09  0.00000000e+00
1.83486270e-03  1.63517917e+01  6.08360000e-02  9.62210000e+03  9.47700000e-09  0.00000000e+00
1.85321130e-03  1.63517589e+01  6.08430000e-02  9.52790000e+03  1.01200000e-08  0.00000000e+00
1.87174340e-03  1.63517094e+01  6.08500000e-02  9.43460000e+03  1.08000000e-08  0.00000000e+00
1.89046080e-03  1.63516432e+01  6.08570000e-02  9.34230000e+03  1.15300000e-08  0.00000000e+00
1.90936540e-03  1.63515601e+01  6.08640000e-02  9.25090000e+03  1.23000000e-08  0.00000000e+00
1.92845900e-03  1.63514599e+01  6.08710000e-02  9.16040000e+03  1.31300000e-08  0.00000000e+00
1.94774360e-03  1.63513424e+01  6.08790000e-02  9.07080000e+03  1.40100000e-08  0.00000000e+00
1.96722100e-03  1.63512076e+01  6.08860000e-02  8.98200000e+03  1.49500000e-08  0.00000000e+00
1.98689320e-03  1.63510551e+01  6.08930000e-02  8.89420000e+03  1.59600000e-08  0.00000000e+00
2.00676210e-03  1.63508847e+01  6.09010000e-02  8.80720000e+03  1.70200000e-08  0.00000000e+00
2.02682970e-03  1.63506963e+01  6.09080000e-02  8.72110000e+03  1.81600000e-08  0.00000000e+00
2.04709800e-03  1.63504896e+01  6.09160000e-02  8.63580000e+03  1.93800000e-08  0.00000000e+00
2.06756900e-03  1.63502644e+01  6.09240000e-02  8.55140000e+03  2.06700000e-08  0.00000000e+00
2.08824460e-03  1.63500203e+01  6.09320000e-02  8.46780000e+03  2.20500000e-08  0.00000000e+00
2.10912710e-03  1.63497571e+01  6.09400000e-02  8.38510000e+03  2.35300000e-08  0.00000000e+00
2.13021830e-03  1.63494745e+01  6.09480000e-02  8.30320000e+03  2.50900000e-08  0.00000000e+00
2.15152050e-03  1.63491721e+01  6.09560000e-02  8.22200000e+03  2.67600000e-08  0.00000000e+00
2.17303570e-03  1.63488498e+01  6.09640000e-02  8.14170000e+03  2.85400000e-08  0.00000000e+00
2.19476600e-03  1.63485070e+01  6.09720000e-02  8.06220000e+03  3.04300000e-08  0.00000000e+00
2.21671360e-03  1.63481435e+01  6.09800000e-02  7.98350000e+03  3.24500000e-08  0.00000000e+00
2.23888080e-03  1.63477589e+01  6.09890000e-02  7.90550000e+03  3.46000000e-08  0.00000000e+00
2.26126950e-03  1.63473528e+01  6.09970000e-02  7.82830000e+03  3.68900000e-08  0.00000000e+00
2.28388220e-03  1.63469248e+01  6.10060000e-02  7.75190000e+03  3.93200000e-08  0.00000000e+00
2.30672100e-03  1.63464744e+01  6.10140000e-02  7.67620000e+03  4.19100000e-08  0.00000000e+00
2.32978820e-03  1.63460013e+01  6.10230000e-02  7.60130000e+03  4.46700000e-08  0.00000000e+00
2.35308610e-03  1.63455049e+01  6.10320000e-02  7.52720000e+03  4.76100000e-08  0.00000000e+00
2.37661690e-03  1.63449852e+01  6.10410000e-02  7.45370000e+03  5.07400000e-08  0.00000000e+00
2.40038310e-03  1.63444408e+01  6.10500000e-02  7.38100000e+03  5.40600000e-08  0.00000000e+00
2.42438690e-03  1.63438717e+01  6.10590000e-02  7.30900000e+03  5.76000000e-08  0.00000000e+00
2.44863070e-03  1.63432773e+01  6.10680000e-02  7.23780000e+03  6.13600000e-08  0.00000000e+00
2.47311700e-03  1.63426570e+01  6.10780000e-02  7.16720000e+03  6.53700000e-08  0.00000000e+00
2.49784810e-03  1.63420102e+01  6.10870000e-02  7.09730000e+03  6.96300000e-08  0.00000000e+00
2.52282660e-03  1.63413361e+01  6.10970000e-02  7.02810000e+03  7.41600000e-08  0.00000000e+00
2.54805480e-03  1.63406345e+01  6.11060000e-02  6.95970000e+03  7.89800000e-08  0.00000000e+00
2.57353540e-03  1.63399045e+01  6.11160000e-02  6.89180000e+03  8.41000000e-08  0.00000000e+00
2.59927070e-03  1.63391453e+01  6.11260000e-02  6.82470000e+03  8.95400000e-08  0.00000000e+00
2.62526340e-03  1.63383563e+01  6.11360000e-02  6.75820000e+03  9.53300000e-08  0.00000000e+00
2.65151600e-03  1.63375366e+01  6.11460000e-02  6.69240000e+03  1.01500000e-07  0.00000000e+00
2.67803110e-03  1.63366854e+01  6.11560000e-02  6.62720000e+03  1.08000000e-07  0.00000000e+00
2.70481140e-03  1.63358019e+01  6.11660000e-02  6.56270000e+03  1.15000000e-07  0.00000000e+00
2.73185950e-03  1.63348852e+01  6.11760000e-02  6.49880000e+03  1.22300000e-07  0.00000000e+00
2.75917810e-03  1.63339343e+01  6.11870000e-02  6.43560000e+03  1.30200000e-07  0.00000000e+00
2.78676980e-03  1.63329483e+01  6.11970000e-02  6.37300000e+03  1.38500000e-07  0.00000000e+00
2.81463750e-03  1.63319260e+01  6.12080000e-02  6.31100000e+03  1.47400000e-07  0.00000000e+00
2.84278380e-03  1.63308665e+01  6.12190000e-02  6.24960000e+03  1.56800000e-07  0.00000000e+00
2.87121160e-03  1.63297684e+01  6.12300000e-02  6.18880000e+03  1.66700000e-07  0.00000000e+00
2.89992370e-03  1.63286307e+01  6.12410000e-02  6.12860000e+03  1.77300000e-07  0.00000000e+00
2.92892290e-03  1.63274518e+01  6.12520000e-02  6.06910000e+03  1.88600000e-07  0.00000000e+00
2.95821210e-03  1.63262647e+01  6.12630000e-02  6.01010000e+03  2.00500000e-07  0.00000000e+00
2.98779420e-03  1.63249991e+01  6.12740000e-02  5.95170000e+03  2.13200000e-07  0.00000000e+00
3.01767220e-03  1.63236879e+01  6.12860000e-02  5.89380000e+03  2.26600000e-07  0.00000000e+00
3.04784880e-03  1.63223294e+01  6.12970000e-02  5.83660000e+03  2.40900000e-07  0.00000000e+00
3.07832730e-03  1.63209218e+01  6.13090000e-02  5.77990000e+03  2.56100000e-07  0.00000000e+00
3.10911050e-03  1.63194631e+01  6.13210000e-02  5.72380000e+03  2.72100000e-07  0.00000000e+00
3.14020160e-03  1.63179510e+01  6.13330000e-02  5.66820000e+03  2.89200000e-07  0.00000000e+00
3.17160360e-03  1.63163832e+01  6.13450000e-02  5.61320000e+03  3.07200000e-07  0.00000000e+00
3.20331960e-03  1.63147572e+01  6.13570000e-02  5.55870000e+03  3.26400000e-07  0.00000000e+00
3.23535280e-03  1.63130700e+01  6.13690000e-02  5.50480000e+03  3.46700000e-07  0.00000000e+00
3.26770630e-03  1.63113184e+01  6.13820000e-02  5.45140000e+03  3.68300000e-07  0.00000000e+00
3.30038330e-03  1.63094990e+01  6.13940000e-02  5.39850000e+03  3.91100000e-07  0.00000000e+00
3.33338710e-03  1.63076078e+01  6.14070000e-02  5.34620000e+03  4.15300000e-07  0.00000000e+00
3.36672100e-03  1.63056403e+01  6.14200000e-02  5.29440000e+03  4.40900000e-07  0.00000000e+00
3.40038810e-03  1.63035913e+01  6.14330000e-02  5.24310000e+03  4.68100000e-07  0.00000000e+00
3.43439200e-03  1.63014550e+01  6.14460000e-02  5.19230000e+03  4.96900000e-07  0.00000000e+00
3.46873590e-03  1.62992245e+01  6.14590000e-02  5.14200000e+03  5.27400000e-07  0.00000000e+00
3.50342320e-03  1.62968916e+01  6.14730000e-02  5.09220000e+03  5.59800000e-07  0.00000000e+00
3.53845740e-03  1.62944478e+01  6.14860000e-02  5.04290000e+03  5.94000000e-07  0.00000000e+00
3.57384190e-03  1.62918789e+01  6.15000000e-02  4.99400000e+03  6.30300000e-07  0.00000000e+00
3.60958030e-03  1.62891713e+01  6.15140000e-02  4.94570000e+03  6.68700000e-07  0.00000000e+00
3.64567610e-03  1.62863063e+01  6.15280000e-02  4.89790000e+03  7.09300000e-07  0.00000000e+00
3.68213280e-03  1.62832593e+01  6.15420000e-02  4.85050000e+03  7.52300000e-07  0.00000000e+00
3.71895410e-03  1.62799972e+01  6.15560000e-02  4.80360000e+03  7.97900000e-07  0.00000000e+00
3.75614360e-03  1.62764734e+01  6.15710000e-02  4.75710000e+03  8.46100000e-07  0.00000000e+00
3.79370500e-03  1.62726186e+01  6.15850000e-02  4.71110000e+03  8.97100000e-07  0.00000000e+00
3.83164200e-03  1.62683225e+01  6.16060000e-02  4.66600000e+03  9.51100000e-07  0.00000000e+00
3.86995840e-03  1.62633903e+01  6.16220000e-02  4.62110000e+03  1.00800000e-06  0.00000000e+00
3.90865800e-03  1.62574223e+01  6.16400000e-02  4.57670000e+03  1.06900000e-06  0.00000000e+00
3.94774450e-03  1.62493366e+01  6.16630000e-02  4.53300000e+03  1.13300000e-06  0.00000000e+00
3.97440020e-03  1.62405456e+01  6.16930000e-02  4.50480000e+03  1.17800000e-06  0.00000000e+00
3.98720020e-03  1.62329464e+01  6.17340000e-02  4.49330000e+03  1.20000000e-06  0.00000000e+00
3.98722190e-03  1.62329286e+01  6.17340000e-02  4.49330000e+03  1.20000000e-06  0.00000000e+00
3.99360020e-03  1.62258476e+01  6.18100000e-02  4.49170000e+03  1.21100000e-06  0.00000000e+00
3.99680020e-03  1.62190235e+01  6.19590000e-02  4.49880000e+03  1.21700000e-06  0.00000000e+00
3.99840020e-03  1.62123578e+01  6.22530000e-02  4.51840000e+03  1.22000000e-06  0.00000000e+00
3.99920020e-03  1.62057987e+01  6.28370000e-02  4.55990000e+03  1.22100000e-06  0.00000000e+00
3.99960020e-03  1.61994005e+01  6.39730000e-02  4.64190000e+03  1.22200000e-06  0.00000000e+00
4.00000010e-03  1.61662248e+01  7.64550000e-02  5.54700000e+03  1.22300000e-06  0.00000000e+00
4.00000030e-03  1.62333681e+01  7.64700000e-02  5.54810000e+03  1.22300000e-06  0.00000000e+00
4.00040020e-03  1.61997452e+01  8.89610000e-02  6.45370000e+03  1.22300000e-06  0.00000000e+00
4.00080020e-03  1.62056385e+01  9.01060000e-02  6.53610000e+03  1.22400000e-06  0.00000000e+00
4.00160020e-03  1.62120238e+01  9.07080000e-02  6.57840000e+03  1.22600000e-06  0.00000000e+00
4.00320020e-03  1.62183856e+01  9.10370000e-02  6.59970000e+03  1.22800000e-06  0.00000000e+00
4.00640020e-03  1.62246132e+01  9.12560000e-02  6.61030000e+03  1.23400000e-06  0.00000000e+00
4.01280020e-03  1.62305739e+01  9.14740000e-02  6.61550000e+03  1.24600000e-06  0.00000000e+00
4.02560020e-03  1.62360259e+01  9.18010000e-02  6.61800000e+03  1.26900000e-06  0.00000000e+00
4.02709410e-03  1.62364374e+01  9.18370000e-02  6.61820000e+03  1.27200000e-06  0.00000000e+00
4.06736500e-03  1.62418496e+01  9.27830000e-02  6.62010000e+03  1.34700000e-06  0.00000000e+00
4.10803860e-03  1.62432439e+01  9.37410000e-02  6.62230000e+03  1.42700000e-06  0.00000000e+00
4.14911890e-03  1.62432689e+01  9.47250000e-02  6.62550000e+03  1.51100000e-06  0.00000000e+00
4.19061010e-03  1.62425879e+01  9.57370000e-02  6.63000000e+03  1.60100000e-06  0.00000000e+00
4.23251620e-03  1.62414689e+01  9.67820000e-02  6.63600000e+03  1.69500000e-06  0.00000000e+00
4.27484130e-03  1.62400467e+01  9.78540000e-02  6.64310000e+03  1.79500000e-06  0.00000000e+00
4.31758960e-03  1.62383993e+01  9.89570000e-02  6.65150000e+03  1.90000000e-06  0.00000000e+00
4.36076550e-03  1.62365766e+01  1.00090000e-01  6.66120000e+03  2.01100000e-06  0.00000000e+00
4.40437310e-03  1.62346140e+01  1.01260000e-01  6.67240000e+03  2.12900000e-06  0.00000000e+00
4.44841680e-03  1.62325375e+01  1.02460000e-01  6.68440000e+03  2.25300000e-06  0.00000000e+00
4.49290090e-03  1.62303606e+01  1.03670000e-01  6.69660000e+03  2.38400000e-06  0.00000000e+00
4.53782990e-03  1.62280895e+01  1.04910000e-01  6.70910000e+03  2.52200000e-06  0.00000000e+00
4.58320820e-03  1.62257307e+01  1.06160000e-01  6.72180000e+03  2.66800000e-06  0.00000000e+00
4.62904020e-03  1.62232889e+01  1.07420000e-01  6.73480000e+03  2.82300000e-06  0.00000000e+00
4.67533060e-03  1.62207679e+01  1.08710000e-01  6.74790000e+03  2.98500000e-06  0.00000000e+00
4.72208380e-03  1.62181703e+01  1.10010000e-01  6.76120000e+03  3.15700000e-06  0.00000000e+00
4.76930460e-03  1.62154982e+01  1.11330000e-01  6.77460000e+03  3.33800000e-06  0.00000000e+00
4.81699760e-03  1.62127529e+01  1.12670000e-01  6.78820000e+03  3.52900000e-06  0.00000000e+00
4.86516750e-03  1.62099354e+01  1.14030000e-01  6.80190000e+03  3.73100000e-06  0.00000000e+00
4.91381920e-03  1.62070463e+01  1.15400000e-01  6.81570000e+03  3.94400000e-06  0.00000000e+00
4.96295730e-03  1.62040857e+01  1.16800000e-01  6.82960000e+03  4.16800000e-06  0.00000000e+00
5.01258680e-03  1.62010536e+01  1.18210000e-01  6.84360000e+03  4.40500000e-06  0.00000000e+00
5.06271270e-03  1.61979496e+01  1.19630000e-01  6.85770000e+03  4.65500000e-06  0.00000000e+00
5.11333970e-03  1.61947732e+01  1.21080000e-01  6.87190000e+03  4.91800000e-06  0.00000000e+00
5.16447310e-03  1.61915238e+01  1.22540000e-01  6.88620000e+03  5.19500000e-06  0.00000000e+00
5.21611780e-03  1.61882004e+01  1.24030000e-01  6.90050000e+03  5.48700000e-06  0.00000000e+00
5.26827890e-03  1.61848022e+01  1.25530000e-01  6.91490000e+03  5.79500000e-06  0.00000000e+00
5.32096160e-03  1.61813279e+01  1.27050000e-01  6.92930000e+03  6.12000000e-06  0.00000000e+00
5.37417120e-03  1.61777764e+01  1.28590000e-01  6.94380000e+03  6.46200000e-06  0.00000000e+00
5.42791290e-03  1.61741463e+01  1.30140000e-01  6.95830000e+03  6.82200000e-06  0.00000000e+00
5.48219190e-03  1.61704362e+01  1.31720000e-01  6.97280000e+03  7.20200000e-06  0.00000000e+00
5.53701380e-03  1.61666445e+01  1.33320000e-01  6.98740000e+03  7.60200000e-06  0.00000000e+00
5.59238390e-03  1.61627697e+01  1.34930000e-01  7.00200000e+03  8.02300000e-06  0.00000000e+00
5.64830770e-03  1.61588099e+01  1.36570000e-01  7.01670000e+03  8.46600000e-06  0.00000000e+00
5.70479070e-03  1.61547635e+01  1.38220000e-01  7.03140000e+03  8.93300000e-06  0.00000000e+00
5.76183850e-03  1.61506285e+01  1.39900000e-01  7.04620000e+03  9.42400000e-06  0.00000000e+00
5.81945690e-03  1.61464031e+01  1.41590000e-01  7.06100000e+03  9.94100000e-06  0.00000000e+00
5.87765140e-03  1.61420851e+01  1.43310000e-01  7.07580000e+03  1.04900000e-05  0.00000000e+00
5.93642780e-03  1.61376725e+01  1.45040000e-01  7.09070000e+03  1.10600000e-05  0.00000000e+00
5.99579210e-03  1.61331631e+01  1.46800000e-01  7.10560000e+03  1.16600000e-05  0.00000000e+00
6.05574990e-03  1.61285546e+01  1.48580000e-01  7.12060000e+03  1.23000000e-05  0.00000000e+00
