#  Sm:    Z = 62;   Atomic weight = 150.3600 g/mol ;    nominal density:   [INLINE] = 7.5100E+00 g/cm3
#         a(barns/atom) = (cm2/g)    2.49679E+02
#         E(eV) (cm2/g) = f2(e/atom)    2.79864E+05
#         18 edges. Edge energies (keV):
# K      4.68342E+01  L I    7.73680E+00  L II   7.31180E+00  L III  6.71620E+00
# M I    1.72280E+00  M II   1.54070E+00  M III  1.41980E+00  M IV   1.10600E+00
# M V    1.08020E+00  N I    3.45700E-01  N II   2.65600E-01  N III  2.47400E-01
# N IV   1.29000E-01  N V    1.29000E-01  N VI   5.50000E-03  O I    3.74000E-02
# O II   2.13000E-02  O III  2.13000E-02
#         Relativistic correction estimate frel (H82,3/5CL) = -9.1787E-01, -5.5500E-01 e/atom
#         Nuclear Thomson correction fNT = -1.4025E-02 e/atom
#    _________________________________________________________________________________________________________
#  Form Factors, Attenuation and Scattering Cross-sections
#  Z=62, E = 0.001 - 1000 keV
#                                                             Attenuation
#    E         f1            f2                     [INLINE] (coh+inc) Coefficient    K       wavelength
#    keV       e/atom       e/atom      cm2/g       cm2/g      cm2/g          cm2/g        nm
1.01000000e-03  1.55867943e+01  6.44220000e-02  1.78510000e+04  1.62400000e-10  0.00000000e+00
1.02010000e-03  1.55999209e+01  6.44260000e-02  1.76750000e+04  1.73900000e-10  0.00000000e+00
1.03030100e-03  1.56082221e+01  6.44290000e-02  1.75010000e+04  1.86200000e-10  0.00000000e+00
1.04060400e-03  1.56133803e+01  6.44330000e-02  1.73290000e+04  1.99400000e-10  0.00000000e+00
1.05101010e-03  1.56179717e+01  6.44370000e-02  1.71580000e+04  2.13500000e-10  0.00000000e+00
1.06152010e-03  1.56216556e+01  6.44410000e-02  1.69900000e+04  2.28700000e-10  0.00000000e+00
1.07213530e-03  1.56245477e+01  6.44450000e-02  1.68220000e+04  2.44900000e-10  0.00000000e+00
1.08285670e-03  1.56271033e+01  6.44490000e-02  1.66570000e+04  2.62400000e-10  0.00000000e+00
1.09368520e-03  1.56293912e+01  6.44530000e-02  1.64930000e+04  2.81000000e-10  0.00000000e+00
1.10462210e-03  1.56314608e+01  6.44570000e-02  1.63310000e+04  3.01100000e-10  0.00000000e+00
1.11566830e-03  1.56335002e+01  6.44620000e-02  1.61700000e+04  3.22500000e-10  0.00000000e+00
1.12682500e-03  1.56352308e+01  6.44660000e-02  1.60110000e+04  3.45500000e-10  0.00000000e+00
1.13809320e-03  1.56369016e+01  6.44700000e-02  1.58540000e+04  3.70200000e-10  0.00000000e+00
1.14947410e-03  1.56383860e+01  6.44740000e-02  1.56980000e+04  3.96600000e-10  0.00000000e+00
1.16096880e-03  1.56400437e+01  6.44790000e-02  1.55430000e+04  4.25000000e-10  0.00000000e+00
1.17257850e-03  1.56413134e+01  6.44830000e-02  1.53900000e+04  4.55300000e-10  0.00000000e+00
1.18430430e-03  1.56425086e+01  6.44870000e-02  1.52390000e+04  4.87900000e-10  0.00000000e+00
1.19614730e-03  1.56436367e+01  6.44920000e-02  1.50890000e+04  5.22700000e-10  0.00000000e+00
1.20810880e-03  1.56448641e+01  6.44960000e-02  1.49410000e+04  5.60100000e-10  0.00000000e+00
1.22018990e-03  1.56458629e+01  6.45010000e-02  1.47940000e+04  6.00200000e-10  0.00000000e+00
1.23239180e-03  1.56468124e+01  6.45050000e-02  1.46490000e+04  6.43100000e-10  0.00000000e+00
1.24471570e-03  1.56477165e+01  6.45100000e-02  1.45050000e+04  6.89100000e-10  0.00000000e+00
1.25716280e-03  1.56485786e+01  6.45150000e-02  1.43620000e+04  7.38300000e-10  0.00000000e+00
1.26973440e-03  1.56494523e+01  6.45200000e-02  1.42210000e+04  7.91100000e-10  0.00000000e+00
1.28243180e-03  1.56502380e+01  6.45240000e-02  1.40810000e+04  8.47600000e-10  0.00000000e+00
1.29525610e-03  1.56509895e+01  6.45290000e-02  1.39430000e+04  9.08200000e-10  0.00000000e+00
1.30820860e-03  1.56517089e+01  6.45340000e-02  1.38060000e+04  9.73100000e-10  0.00000000e+00
1.32129070e-03  1.56523979e+01  6.45390000e-02  1.36700000e+04  1.04300000e-09  0.00000000e+00
1.33450360e-03  1.56530581e+01  6.45440000e-02  1.35360000e+04  1.11700000e-09  0.00000000e+00
1.34784860e-03  1.56536911e+01  6.45490000e-02  1.34030000e+04  1.19700000e-09  0.00000000e+00
1.36132710e-03  1.56542980e+01  6.45540000e-02  1.32710000e+04  1.28200000e-09  0.00000000e+00
1.37494030e-03  1.56548800e+01  6.45590000e-02  1.31410000e+04  1.37300000e-09  0.00000000e+00
1.38868970e-03  1.56554382e+01  6.45640000e-02  1.30120000e+04  1.47100000e-09  0.00000000e+00
1.40257660e-03  1.56559736e+01  6.45700000e-02  1.28840000e+04  1.57600000e-09  0.00000000e+00
1.41660240e-03  1.56564869e+01  6.45750000e-02  1.27570000e+04  1.68800000e-09  0.00000000e+00
1.43076840e-03  1.56569790e+01  6.45800000e-02  1.26320000e+04  1.80800000e-09  0.00000000e+00
1.44507600e-03  1.56574505e+01  6.45860000e-02  1.25080000e+04  1.93600000e-09  0.00000000e+00
1.45952680e-03  1.56579021e+01  6.45910000e-02  1.23850000e+04  2.07400000e-09  0.00000000e+00
1.47412200e-03  1.56583344e+01  6.45970000e-02  1.22640000e+04  2.22100000e-09  0.00000000e+00
1.48886320e-03  1.56587478e+01  6.46020000e-02  1.21430000e+04  2.37800000e-09  0.00000000e+00
1.50375190e-03  1.56591429e+01  6.46080000e-02  1.20240000e+04  2.54700000e-09  0.00000000e+00
1.51878940e-03  1.56595200e+01  6.46140000e-02  1.19060000e+04  2.72700000e-09  0.00000000e+00
1.53397720e-03  1.56598796e+01  6.46190000e-02  1.17890000e+04  2.91900000e-09  0.00000000e+00
1.54931700e-03  1.56602219e+01  6.46250000e-02  1.16740000e+04  3.12500000e-09  0.00000000e+00
1.56481020e-03  1.56605474e+01  6.46310000e-02  1.15590000e+04  3.34600000e-09  0.00000000e+00
1.58045820e-03  1.56608562e+01  6.46370000e-02  1.14460000e+04  3.58100000e-09  0.00000000e+00
1.59626280e-03  1.56611486e+01  6.46430000e-02  1.13330000e+04  3.83300000e-09  0.00000000e+00
1.61222540e-03  1.56614249e+01  6.46490000e-02  1.12220000e+04  4.10300000e-09  0.00000000e+00
1.62834770e-03  1.56616852e+01  6.46550000e-02  1.11120000e+04  4.39100000e-09  0.00000000e+00
1.64463110e-03  1.56619296e+01  6.46610000e-02  1.10030000e+04  4.69800000e-09  0.00000000e+00
1.66107740e-03  1.56621585e+01  6.46670000e-02  1.08950000e+04  5.02700000e-09  0.00000000e+00
1.67768820e-03  1.56623718e+01  6.46740000e-02  1.07890000e+04  5.37900000e-09  0.00000000e+00
1.69446500e-03  1.56625696e+01  6.46800000e-02  1.06830000e+04  5.75500000e-09  0.00000000e+00
1.71140970e-03  1.56627521e+01  6.46860000e-02  1.05780000e+04  6.15600000e-09  0.00000000e+00
1.72852380e-03  1.56629193e+01  6.46930000e-02  1.04740000e+04  6.58500000e-09  0.00000000e+00
1.74580900e-03  1.56630713e+01  6.46990000e-02  1.03720000e+04  7.04300000e-09  0.00000000e+00
1.76326710e-03  1.56632081e+01  6.47060000e-02  1.02700000e+04  7.53200000e-09  0.00000000e+00
1.78089970e-03  1.56633297e+01  6.47130000e-02  1.01690000e+04  8.05500000e-09  0.00000000e+00
1.79870870e-03  1.56634361e+01  6.47200000e-02  1.00700000e+04  8.61300000e-09  0.00000000e+00
1.81669580e-03  1.56635273e+01  6.47260000e-02  9.97120000e+03  9.20900000e-09  0.00000000e+00
1.83486270e-03  1.56636033e+01  6.47330000e-02  9.87350000e+03  9.84500000e-09  0.00000000e+00
1.85321130e-03  1.56636640e+01  6.47400000e-02  9.77680000e+03  1.05200000e-08  0.00000000e+00
1.87174340e-03  1.56637093e+01  6.47470000e-02  9.68100000e+03  1.12500000e-08  0.00000000e+00
1.89046080e-03  1.56637393e+01  6.47540000e-02  9.58620000e+03  1.20200000e-08  0.00000000e+00
1.90936540e-03  1.56637539e+01  6.47620000e-02  9.49240000e+03  1.28500000e-08  0.00000000e+00
1.92845900e-03  1.56637528e+01  6.47690000e-02  9.39950000e+03  1.37300000e-08  0.00000000e+00
1.94774360e-03  1.56637361e+01  6.47760000e-02  9.30740000e+03  1.46700000e-08  0.00000000e+00
1.96722100e-03  1.56637037e+01  6.47840000e-02  9.21630000e+03  1.56700000e-08  0.00000000e+00
1.98689320e-03  1.56636553e+01  6.47910000e-02  9.12610000e+03  1.67400000e-08  0.00000000e+00
2.00676210e-03  1.56635909e+01  6.47990000e-02  9.03680000e+03  1.78800000e-08  0.00000000e+00
2.02682970e-03  1.56635103e+01  6.48060000e-02  8.94840000e+03  1.91000000e-08  0.00000000e+00
2.04709800e-03  1.56634133e+01  6.48140000e-02  8.86090000e+03  2.04000000e-08  0.00000000e+00
2.06756900e-03  1.56632999e+01  6.48220000e-02  8.77420000e+03  2.17800000e-08  0.00000000e+00
2.08824460e-03  1.56631697e+01  6.48300000e-02  8.68840000e+03  2.32500000e-08  0.00000000e+00
2.10912710e-03  1.56630227e+01  6.48380000e-02  8.60340000e+03  2.48200000e-08  0.00000000e+00
2.13021830e-03  1.56628586e+01  6.48460000e-02  8.51930000e+03  2.65000000e-08  0.00000000e+00
2.15152050e-03  1.56626772e+01  6.48540000e-02  8.43600000e+03  2.82800000e-08  0.00000000e+00
2.17303570e-03  1.56624783e+01  6.48620000e-02  8.35350000e+03  3.01900000e-08  0.00000000e+00
2.19476600e-03  1.56622616e+01  6.48700000e-02  8.27190000e+03  3.22100000e-08  0.00000000e+00
2.21671360e-03  1.56620270e+01  6.48790000e-02  8.19100000e+03  3.43700000e-08  0.00000000e+00
2.23888080e-03  1.56617741e+01  6.48870000e-02  8.11100000e+03  3.66700000e-08  0.00000000e+00
2.26126950e-03  1.56615027e+01  6.48960000e-02  8.03180000e+03  3.91200000e-08  0.00000000e+00
2.28388220e-03  1.56612125e+01  6.49040000e-02  7.95330000e+03  4.17200000e-08  0.00000000e+00
2.30672100e-03  1.56609033e+01  6.49130000e-02  7.87560000e+03  4.45000000e-08  0.00000000e+00
2.32978820e-03  1.56605747e+01  6.49220000e-02  7.79870000e+03  4.74500000e-08  0.00000000e+00
2.35308610e-03  1.56602264e+01  6.49310000e-02  7.72250000e+03  5.06000000e-08  0.00000000e+00
2.37661690e-03  1.56598582e+01  6.49400000e-02  7.64710000e+03  5.39500000e-08  0.00000000e+00
2.40038310e-03  1.56594696e+01  6.49490000e-02  7.57250000e+03  5.75100000e-08  0.00000000e+00
2.42438690e-03  1.56590604e+01  6.49580000e-02  7.49860000e+03  6.13000000e-08  0.00000000e+00
2.44863070e-03  1.56586302e+01  6.49670000e-02  7.42540000e+03  6.53300000e-08  0.00000000e+00
2.47311700e-03  1.56581786e+01  6.49770000e-02  7.35290000e+03  6.96200000e-08  0.00000000e+00
2.49784810e-03  1.56577052e+01  6.49860000e-02  7.28120000e+03  7.41900000e-08  0.00000000e+00
2.52282660e-03  1.56572097e+01  6.49960000e-02  7.21020000e+03  7.90400000e-08  0.00000000e+00
2.54805480e-03  1.56566917e+01  6.50060000e-02  7.13980000e+03  8.42000000e-08  0.00000000e+00
2.57353540e-03  1.56561507e+01  6.50150000e-02  7.07020000e+03  8.96900000e-08  0.00000000e+00
2.59927070e-03  1.56555864e+01  6.50250000e-02  7.00130000e+03  9.55300000e-08  0.00000000e+00
2.62526340e-03  1.56549982e+01  6.50350000e-02  6.93300000e+03  1.01700000e-07  0.00000000e+00
2.65151600e-03  1.56543858e+01  6.50450000e-02  6.86540000e+03  1.08300000e-07  0.00000000e+00
2.67803110e-03  1.56537486e+01  6.50560000e-02  6.79850000e+03  1.15300000e-07  0.00000000e+00
2.70481140e-03  1.56530862e+01  6.50660000e-02  6.73230000e+03  1.22800000e-07  0.00000000e+00
2.73185950e-03  1.56523981e+01  6.50760000e-02  6.66670000e+03  1.30700000e-07  0.00000000e+00
2.75917810e-03  1.56516838e+01  6.50870000e-02  6.60180000e+03  1.39100000e-07  0.00000000e+00
2.78676980e-03  1.56509427e+01  6.50970000e-02  6.53750000e+03  1.48000000e-07  0.00000000e+00
2.81463750e-03  1.56501743e+01  6.51080000e-02  6.47380000e+03  1.57500000e-07  0.00000000e+00
2.84278380e-03  1.56493780e+01  6.51190000e-02  6.41080000e+03  1.67600000e-07  0.00000000e+00
2.87121160e-03  1.56485533e+01  6.51300000e-02  6.34840000e+03  1.78200000e-07  0.00000000e+00
2.89992370e-03  1.56476996e+01  6.51410000e-02  6.28660000e+03  1.89600000e-07  0.00000000e+00
2.92892290e-03  1.56468162e+01  6.51520000e-02  6.22540000e+03  2.01600000e-07  0.00000000e+00
2.95821210e-03  1.56459026e+01  6.51640000e-02  6.16480000e+03  2.14400000e-07  0.00000000e+00
2.98779420e-03  1.56449580e+01  6.51750000e-02  6.10490000e+03  2.28000000e-07  0.00000000e+00
3.01767220e-03  1.56439819e+01  6.51870000e-02  6.04550000e+03  2.42400000e-07  0.00000000e+00
3.04784880e-03  1.56430081e+01  6.51980000e-02  5.98670000e+03  2.57700000e-07  0.00000000e+00
3.07832730e-03  1.56419662e+01  6.52100000e-02  5.92850000e+03  2.73900000e-07  0.00000000e+00
3.10911050e-03  1.56408907e+01  6.52220000e-02  5.87090000e+03  2.91100000e-07  0.00000000e+00
3.14020160e-03  1.56397810e+01  6.52340000e-02  5.81380000e+03  3.09300000e-07  0.00000000e+00
3.17160360e-03  1.56386357e+01  6.52460000e-02  5.75730000e+03  3.28700000e-07  0.00000000e+00
3.20331960e-03  1.56374544e+01  6.52580000e-02  5.70140000e+03  3.49200000e-07  0.00000000e+00
3.23535280e-03  1.56362361e+01  6.52710000e-02  5.64600000e+03  3.70900000e-07  0.00000000e+00
3.26770630e-03  1.56349799e+01  6.52830000e-02  5.59120000e+03  3.93900000e-07  0.00000000e+00
3.30038330e-03  1.56336853e+01  6.52960000e-02  5.53690000e+03  4.18400000e-07  0.00000000e+00
3.33338710e-03  1.56323510e+01  6.53090000e-02  5.48320000e+03  4.44300000e-07  0.00000000e+00
3.36672100e-03  1.56309763e+01  6.53220000e-02  5.43000000e+03  4.71700000e-07  0.00000000e+00
3.40038810e-03  1.56295600e+01  6.53350000e-02  5.37730000e+03  5.00800000e-07  0.00000000e+00
3.43439200e-03  1.56281012e+01  6.53480000e-02  5.32510000e+03  5.31500000e-07  0.00000000e+00
3.46873590e-03  1.56265989e+01  6.53610000e-02  5.27350000e+03  5.64200000e-07  0.00000000e+00
3.50342320e-03  1.56250519e+01  6.53750000e-02  5.22230000e+03  5.98700000e-07  0.00000000e+00
3.53845740e-03  1.56234591e+01  6.53890000e-02  5.17170000e+03  6.35300000e-07  0.00000000e+00
3.57384190e-03  1.56218194e+01  6.54020000e-02  5.12160000e+03  6.74000000e-07  0.00000000e+00
3.60958030e-03  1.56201315e+01  6.54160000e-02  5.07200000e+03  7.15000000e-07  0.00000000e+00
3.64567610e-03  1.56183942e+01  6.54300000e-02  5.02280000e+03  7.58400000e-07  0.00000000e+00
3.68213280e-03  1.56166061e+01  6.54450000e-02  4.97420000e+03  8.04400000e-07  0.00000000e+00
3.71895410e-03  1.56147659e+01  6.54590000e-02  4.92600000e+03  8.53000000e-07  0.00000000e+00
3.75614360e-03  1.56128722e+01  6.54740000e-02  4.87830000e+03  9.04500000e-07  0.00000000e+00
3.79370500e-03  1.56109234e+01  6.54880000e-02  4.83110000e+03  9.58900000e-07  0.00000000e+00
3.83164200e-03  1.56089181e+01  6.55030000e-02  4.78440000e+03  1.01700000e-06  0.00000000e+00
3.86995840e-03  1.56068545e+01  6.55180000e-02  4.73810000e+03  1.07700000e-06  0.00000000e+00
3.90865800e-03  1.56047310e+01  6.55330000e-02  4.69220000e+03  1.14200000e-06  0.00000000e+00
3.94774450e-03  1.56025458e+01  6.55490000e-02  4.64690000e+03  1.21000000e-06  0.00000000e+00
3.98722190e-03  1.56002970e+01  6.55640000e-02  4.60190000e+03  1.28200000e-06  0.00000000e+00
4.02709410e-03  1.55979827e+01  6.55800000e-02  4.55750000e+03  1.35800000e-06  0.00000000e+00
4.06736500e-03  1.55956007e+01  6.55950000e-02  4.51340000e+03  1.43900000e-06  0.00000000e+00
4.10803860e-03  1.55931489e+01  6.56110000e-02  4.46980000e+03  1.52400000e-06  0.00000000e+00
4.14911890e-03  1.55906249e+01  6.56280000e-02  4.42670000e+03  1.61400000e-06  0.00000000e+00
4.19061010e-03  1.55880262e+01  6.56440000e-02  4.38390000e+03  1.70900000e-06  0.00000000e+00
4.23251620e-03  1.55853501e+01  6.56600000e-02  4.34160000e+03  1.80900000e-06  0.00000000e+00
4.27484130e-03  1.55825939e+01  6.56770000e-02  4.29970000e+03  1.91500000e-06  0.00000000e+00
4.31758960e-03  1.55797545e+01  6.56940000e-02  4.25820000e+03  2.02800000e-06  0.00000000e+00
4.36076550e-03  1.55768286e+01  6.57110000e-02  4.21720000e+03  2.14600000e-06  0.00000000e+00
4.40437310e-03  1.55738127e+01  6.57280000e-02  4.17650000e+03  2.27100000e-06  0.00000000e+00
4.44841680e-03  1.55707028e+01  6.57450000e-02  4.13630000e+03  2.40300000e-06  0.00000000e+00
4.49290090e-03  1.55674948e+01  6.57630000e-02  4.09640000e+03  2.54200000e-06  0.00000000e+00
4.53782990e-03  1.55641839e+01  6.57810000e-02  4.05690000e+03  2.68900000e-06  0.00000000e+00
4.58320820e-03  1.55607651e+01  6.57990000e-02  4.01790000e+03  2.84500000e-06  0.00000000e+00
4.62904020e-03  1.55572324e+01  6.58170000e-02  3.97920000e+03  3.00900000e-06  0.00000000e+00
4.67533060e-03  1.55535795e+01  6.58350000e-02  3.94090000e+03  3.18200000e-06  0.00000000e+00
4.72208380e-03  1.55497989e+01  6.58540000e-02  3.90300000e+03  3.36400000e-06  0.00000000e+00
4.76930460e-03  1.55458820e+01  6.58720000e-02  3.86540000e+03  3.55700000e-06  0.00000000e+00
4.81699760e-03  1.55418189e+01  6.58910000e-02  3.82820000e+03  3.76000000e-06  0.00000000e+00
4.86516750e-03  1.55375977e+01  6.59110000e-02  3.79140000e+03  3.97400000e-06  0.00000000e+00
4.91381920e-03  1.55332043e+01  6.59300000e-02  3.75500000e+03  4.20000000e-06  0.00000000e+00
4.96295730e-03  1.55286210e+01  6.59490000e-02  3.71890000e+03  4.43800000e-06  0.00000000e+00
5.01258680e-03  1.55238260e+01  6.59690000e-02  3.68320000e+03  4.68900000e-06  0.00000000e+00
5.06271270e-03  1.55187922e+01  6.59890000e-02  3.64780000e+03  4.95400000e-06  0.00000000e+00
5.11333970e-03  1.55134787e+01  6.60090000e-02  3.61280000e+03  5.23300000e-06  0.00000000e+00
5.16447310e-03  1.55078334e+01  6.60300000e-02  3.57820000e+03  5.52700000e-06  0.00000000e+00
5.21611780e-03  1.55017779e+01  6.60500000e-02  3.54380000e+03  5.83700000e-06  0.00000000e+00
5.26827890e-03  1.54951875e+01  6.60710000e-02  3.50990000e+03  6.16300000e-06  0.00000000e+00
5.32096160e-03  1.54878442e+01  6.60980000e-02  3.47650000e+03  6.50700000e-06  0.00000000e+00
5.37417120e-03  1.54793018e+01  6.61220000e-02  3.44330000e+03  6.86900000e-06  0.00000000e+00
5.42791290e-03  1.54683586e+01  6.61500000e-02  3.41070000e+03  7.25100000e-06  0.00000000e+00
5.47440000e-03  1.54528221e+01  6.61950000e-02  3.38400000e+03  7.59400000e-06  0.00000000e+00
5.48219190e-03  1.54481885e+01  6.62160000e-02  3.38030000e+03  7.65300000e-06  0.00000000e+00
5.48720000e-03  1.54441830e+01  6.62410000e-02  3.37850000e+03  7.69100000e-06  0.00000000e+00
5.49360000e-03  1.54362067e+01  6.63250000e-02  3.37880000e+03  7.74000000e-06  0.00000000e+00
5.49680000e-03  1.54285839e+01  6.64900000e-02  3.38530000e+03  7.76400000e-06  0.00000000e+00
5.49840000e-03  1.54211580e+01  6.68170000e-02  3.40090000e+03  7.77600000e-06  0.00000000e+00
5.49920000e-03  1.54138594e+01  6.74660000e-02  3.43340000e+03  7.78200000e-06  0.00000000e+00
5.49960000e-03  1.54067439e+01  6.87290000e-02  3.49750000e+03  7.78600000e-06  0.00000000e+00
5.49999990e-03  1.53254695e+01  8.26000000e-02  4.20300000e+03  7.78900000e-06  0.00000000e+00
5.50000010e-03  1.54285446e+01  8.26230000e-02  4.20420000e+03  7.78900000e-06  0.00000000e+00
5.50040000e-03  1.54071200e+01  9.65010000e-02  4.91000000e+03  7.79200000e-06  0.00000000e+00
5.50080000e-03  1.54136669e+01  9.77720000e-02  4.97430000e+03  7.79500000e-06  0.00000000e+00
5.50160000e-03  1.54207560e+01  9.84360000e-02  5.00740000e+03  7.80100000e-06  0.00000000e+00
5.50320000e-03  1.54278090e+01  9.87940000e-02  5.02420000e+03  7.81300000e-06  0.00000000e+00
5.50640000e-03  1.54346909e+01  9.90210000e-02  5.03280000e+03  7.83800000e-06  0.00000000e+00
5.51280000e-03  1.54412288e+01  9.92290000e-02  5.03750000e+03  7.88700000e-06  0.00000000e+00
5.52560000e-03  1.54470995e+01  9.95250000e-02  5.04080000e+03  7.98700000e-06  0.00000000e+00
5.53701380e-03  1.54497551e+01  9.97650000e-02  5.04250000e+03  8.07600000e-06  0.00000000e+00
5.55120000e-03  1.54516800e+01  1.00060000e-01  5.04440000e+03  8.18900000e-06  0.00000000e+00
5.59238390e-03  1.54536788e+01  1.00900000e-01  5.04950000e+03  8.52200000e-06  0.00000000e+00
5.64830770e-03  1.54530734e+01  1.02060000e-01  5.05700000e+03  8.99100000e-06  0.00000000e+00
5.70479070e-03  1.54508997e+01  1.03260000e-01  5.06560000e+03  9.48500000e-06  0.00000000e+00
5.76183850e-03  1.54478948e+01  1.04500000e-01  5.07550000e+03  1.00000000e-05  0.00000000e+00
5.81945690e-03  1.54443548e+01  1.05770000e-01  5.08640000e+03  1.05500000e-05  0.00000000e+00
5.87765140e-03  1.54404282e+01  1.07080000e-01  5.09860000e+03  1.11300000e-05  0.00000000e+00
5.93642780e-03  1.54361997e+01  1.08430000e-01  5.11200000e+03  1.17300000e-05  0.00000000e+00
5.99579210e-03  1.54317217e+01  1.09830000e-01  5.12670000e+03  1.23700000e-05  0.00000000e+00
