#  Eu:    Z = 63;   Atomic weight = 151.9600 g/mol ;    nominal density:   [INLINE] = 5.2280E+00 g/cm3
#         a(barns/atom) = (cm2/g)    2.52336E+02
#         E(eV) (cm2/g) = f2(e/atom)    2.76917E+05
#         18 edges. Edge energies (keV):
# K      4.85190E+01  L I    8.05200E+00  L II   7.61710E+00  L III  6.97690E+00
# M I    1.80000E+00  M II   1.61390E+00  M III  1.48060E+00  M IV   1.16060E+00
# M V    1.13090E+00  N I    3.60200E-01  N II   2.83900E-01  N III  2.56600E-01
# N IV   1.33200E-01  N V    1.33200E-01  N VI   2.91151E-03  O I    3.18000E-02
# O II   2.20000E-02  O III  2.20000E-02
#         Relativistic correction estimate frel (H82,3/5CL) = -9.5641E-01, -5.7720E-01 e/atom
#         Nuclear Thomson correction fNT = -1.4328E-02 e/atom
#    _________________________________________________________________________________________________________
#  Form Factors, Attenuation and Scattering Cross-sections
#  Z=63, E = 0.001 - 1000 keV
#                                                             Attenuation
#    E         f1            f2                     [INLINE] (coh+inc) Coefficient    K       wavelength
#    keV       e/atom       e/atom      cm2/g       cm2/g      cm2/g          cm2/g        nm
1.01000000e-03  1.72215807e+01  7.15600000e-02  1.96200000e+04  1.48900000e-10  0.00000000e+00
1.02010000e-03  1.72361039e+01  7.15640000e-02  1.94270000e+04  1.60300000e-10  0.00000000e+00
1.03030100e-03  1.72454063e+01  7.15680000e-02  1.92360000e+04  1.72600000e-10  0.00000000e+00
1.04060400e-03  1.72510811e+01  7.15730000e-02  1.90460000e+04  1.85900000e-10  0.00000000e+00
1.05101010e-03  1.72561382e+01  7.15770000e-02  1.88590000e+04  2.00100000e-10  0.00000000e+00
1.06152010e-03  1.72601868e+01  7.15810000e-02  1.86730000e+04  2.15400000e-10  0.00000000e+00
1.07213530e-03  1.72633692e+01  7.15860000e-02  1.84900000e+04  2.31900000e-10  0.00000000e+00
1.08285670e-03  1.72661769e+01  7.15900000e-02  1.83080000e+04  2.49600000e-10  0.00000000e+00
1.09368520e-03  1.72686860e+01  7.15950000e-02  1.81270000e+04  2.68700000e-10  0.00000000e+00
1.10462210e-03  1.72709515e+01  7.15990000e-02  1.79490000e+04  2.89100000e-10  0.00000000e+00
1.11566830e-03  1.72730146e+01  7.16040000e-02  1.77730000e+04  3.11100000e-10  0.00000000e+00
1.12682500e-03  1.72750530e+01  7.16080000e-02  1.75980000e+04  3.34700000e-10  0.00000000e+00
1.13809320e-03  1.72767941e+01  7.16130000e-02  1.74250000e+04  3.60100000e-10  0.00000000e+00
1.14947410e-03  1.72784768e+01  7.16180000e-02  1.72530000e+04  3.87400000e-10  0.00000000e+00
1.16096880e-03  1.72799779e+01  7.16230000e-02  1.70840000e+04  4.16700000e-10  0.00000000e+00
1.17257850e-03  1.72816492e+01  7.16270000e-02  1.69160000e+04  4.48100000e-10  0.00000000e+00
1.18430430e-03  1.72829379e+01  7.16320000e-02  1.67490000e+04  4.81900000e-10  0.00000000e+00
1.19614730e-03  1.72841508e+01  7.16370000e-02  1.65850000e+04  5.18200000e-10  0.00000000e+00
1.20810880e-03  1.72852950e+01  7.16420000e-02  1.64210000e+04  5.57100000e-10  0.00000000e+00
1.22018990e-03  1.72865355e+01  7.16470000e-02  1.62600000e+04  5.99000000e-10  0.00000000e+00
1.23239180e-03  1.72875469e+01  7.16520000e-02  1.61000000e+04  6.43800000e-10  0.00000000e+00
1.24471570e-03  1.72885064e+01  7.16570000e-02  1.59420000e+04  6.92000000e-10  0.00000000e+00
1.25716280e-03  1.72894179e+01  7.16620000e-02  1.57850000e+04  7.43700000e-10  0.00000000e+00
1.26973440e-03  1.72902847e+01  7.16680000e-02  1.56300000e+04  7.99200000e-10  0.00000000e+00
1.28243180e-03  1.72911614e+01  7.16730000e-02  1.54760000e+04  8.58700000e-10  0.00000000e+00
1.29525610e-03  1.72919460e+01  7.16780000e-02  1.53240000e+04  9.22500000e-10  0.00000000e+00
1.30820860e-03  1.72926935e+01  7.16840000e-02  1.51740000e+04  9.91000000e-10  0.00000000e+00
1.32129070e-03  1.72934057e+01  7.16890000e-02  1.50250000e+04  1.06400000e-09  0.00000000e+00
1.33450360e-03  1.72940845e+01  7.16950000e-02  1.48770000e+04  1.14300000e-09  0.00000000e+00
1.34784860e-03  1.72947314e+01  7.17000000e-02  1.47310000e+04  1.22800000e-09  0.00000000e+00
1.36132710e-03  1.72953478e+01  7.17060000e-02  1.45860000e+04  1.31800000e-09  0.00000000e+00
1.37494030e-03  1.72959349e+01  7.17110000e-02  1.44430000e+04  1.41500000e-09  0.00000000e+00
1.38868970e-03  1.72964940e+01  7.17170000e-02  1.43010000e+04  1.51900000e-09  0.00000000e+00
1.40257660e-03  1.72970259e+01  7.17230000e-02  1.41610000e+04  1.63100000e-09  0.00000000e+00
1.41660240e-03  1.72975315e+01  7.17290000e-02  1.40210000e+04  1.75000000e-09  0.00000000e+00
1.43076840e-03  1.72980117e+01  7.17350000e-02  1.38840000e+04  1.87800000e-09  0.00000000e+00
1.44507600e-03  1.72984671e+01  7.17410000e-02  1.37470000e+04  2.01500000e-09  0.00000000e+00
1.45952680e-03  1.72988985e+01  7.17470000e-02  1.36130000e+04  2.16200000e-09  0.00000000e+00
1.47412200e-03  1.72993063e+01  7.17530000e-02  1.34790000e+04  2.31900000e-09  0.00000000e+00
1.48886320e-03  1.72996911e+01  7.17590000e-02  1.33470000e+04  2.48700000e-09  0.00000000e+00
1.50375190e-03  1.73000533e+01  7.17650000e-02  1.32160000e+04  2.66800000e-09  0.00000000e+00
1.51878940e-03  1.73003932e+01  7.17710000e-02  1.30860000e+04  2.86100000e-09  0.00000000e+00
1.53397720e-03  1.73007113e+01  7.17780000e-02  1.29570000e+04  3.06700000e-09  0.00000000e+00
1.54931700e-03  1.73010079e+01  7.17840000e-02  1.28300000e+04  3.28800000e-09  0.00000000e+00
1.56481020e-03  1.73012831e+01  7.17900000e-02  1.27040000e+04  3.52500000e-09  0.00000000e+00
1.58045820e-03  1.73015372e+01  7.17970000e-02  1.25800000e+04  3.77800000e-09  0.00000000e+00
1.59626280e-03  1.73017703e+01  7.18030000e-02  1.24560000e+04  4.04900000e-09  0.00000000e+00
1.61222540e-03  1.73019827e+01  7.18100000e-02  1.23340000e+04  4.33900000e-09  0.00000000e+00
1.62834770e-03  1.73021743e+01  7.18170000e-02  1.22130000e+04  4.64900000e-09  0.00000000e+00
1.64463110e-03  1.73023452e+01  7.18240000e-02  1.20930000e+04  4.98000000e-09  0.00000000e+00
1.66107740e-03  1.73024955e+01  7.18310000e-02  1.19750000e+04  5.33500000e-09  0.00000000e+00
1.67768820e-03  1.73026252e+01  7.18370000e-02  1.18570000e+04  5.71400000e-09  0.00000000e+00
1.69446500e-03  1.73027342e+01  7.18440000e-02  1.17410000e+04  6.11900000e-09  0.00000000e+00
1.71140970e-03  1.73028225e+01  7.18520000e-02  1.16260000e+04  6.55200000e-09  0.00000000e+00
1.72852380e-03  1.73028899e+01  7.18590000e-02  1.15120000e+04  7.01500000e-09  0.00000000e+00
1.74580900e-03  1.73029365e+01  7.18660000e-02  1.13990000e+04  7.51000000e-09  0.00000000e+00
1.76326710e-03  1.73029620e+01  7.18730000e-02  1.12880000e+04  8.03800000e-09  0.00000000e+00
1.78089970e-03  1.73029662e+01  7.18810000e-02  1.11770000e+04  8.60300000e-09  0.00000000e+00
1.79870870e-03  1.73029494e+01  7.18880000e-02  1.10670000e+04  9.20600000e-09  0.00000000e+00
1.81669580e-03  1.73029105e+01  7.18960000e-02  1.09590000e+04  9.85100000e-09  0.00000000e+00
1.83486270e-03  1.73028496e+01  7.19030000e-02  1.08520000e+04  1.05400000e-08  0.00000000e+00
1.85321130e-03  1.73027664e+01  7.19110000e-02  1.07450000e+04  1.12700000e-08  0.00000000e+00
1.87174340e-03  1.73026607e+01  7.19190000e-02  1.06400000e+04  1.20600000e-08  0.00000000e+00
1.89046080e-03  1.73025320e+01  7.19260000e-02  1.05360000e+04  1.29000000e-08  0.00000000e+00
1.90936540e-03  1.73023800e+01  7.19340000e-02  1.04330000e+04  1.37900000e-08  0.00000000e+00
1.92845900e-03  1.73022042e+01  7.19420000e-02  1.03310000e+04  1.47400000e-08  0.00000000e+00
1.94774360e-03  1.73020042e+01  7.19500000e-02  1.02290000e+04  1.57600000e-08  0.00000000e+00
1.96722100e-03  1.73017791e+01  7.19590000e-02  1.01290000e+04  1.68500000e-08  0.00000000e+00
1.98689320e-03  1.73015290e+01  7.19670000e-02  1.00300000e+04  1.80100000e-08  0.00000000e+00
2.00676210e-03  1.73012532e+01  7.19750000e-02  9.93200000e+03  1.92400000e-08  0.00000000e+00
2.02682970e-03  1.73009508e+01  7.19840000e-02  9.83480000e+03  2.05600000e-08  0.00000000e+00
2.04709800e-03  1.73006212e+01  7.19920000e-02  9.73860000e+03  2.19700000e-08  0.00000000e+00
2.06756900e-03  1.73002637e+01  7.20010000e-02  9.64330000e+03  2.34700000e-08  0.00000000e+00
2.08824460e-03  1.72998774e+01  7.20090000e-02  9.54900000e+03  2.50600000e-08  0.00000000e+00
2.10912710e-03  1.72994616e+01  7.20180000e-02  9.45560000e+03  2.67700000e-08  0.00000000e+00
2.13021830e-03  1.72990152e+01  7.20270000e-02  9.36310000e+03  2.85800000e-08  0.00000000e+00
2.15152050e-03  1.72985372e+01  7.20360000e-02  9.27160000e+03  3.05200000e-08  0.00000000e+00
2.17303570e-03  1.72980266e+01  7.20450000e-02  9.18090000e+03  3.25800000e-08  0.00000000e+00
2.19476600e-03  1.72974821e+01  7.20540000e-02  9.09120000e+03  3.47800000e-08  0.00000000e+00
2.21671360e-03  1.72969024e+01  7.20630000e-02  9.00230000e+03  3.71200000e-08  0.00000000e+00
2.23888080e-03  1.72962860e+01  7.20730000e-02  8.91440000e+03  3.96100000e-08  0.00000000e+00
2.26126950e-03  1.72956315e+01  7.20820000e-02  8.82720000e+03  4.22700000e-08  0.00000000e+00
2.28388220e-03  1.72949369e+01  7.20920000e-02  8.74100000e+03  4.51000000e-08  0.00000000e+00
2.30672100e-03  1.72942005e+01  7.21010000e-02  8.65560000e+03  4.81100000e-08  0.00000000e+00
2.32978820e-03  1.72934199e+01  7.21110000e-02  8.57110000e+03  5.13100000e-08  0.00000000e+00
2.35308610e-03  1.72925929e+01  7.21210000e-02  8.48740000e+03  5.47200000e-08  0.00000000e+00
2.37661690e-03  1.72917177e+01  7.21310000e-02  8.40450000e+03  5.83500000e-08  0.00000000e+00
2.40038310e-03  1.72907893e+01  7.21410000e-02  8.32240000e+03  6.22200000e-08  0.00000000e+00
2.42438690e-03  1.72898053e+01  7.21510000e-02  8.24120000e+03  6.63300000e-08  0.00000000e+00
2.44863070e-03  1.72887616e+01  7.21610000e-02  8.16070000e+03  7.07000000e-08  0.00000000e+00
2.47311700e-03  1.72876535e+01  7.21720000e-02  8.08110000e+03  7.53600000e-08  0.00000000e+00
2.49784810e-03  1.72864757e+01  7.21820000e-02  8.00230000e+03  8.03100000e-08  0.00000000e+00
2.52282660e-03  1.72852218e+01  7.21930000e-02  7.92420000e+03  8.55700000e-08  0.00000000e+00
2.54805480e-03  1.72838841e+01  7.22030000e-02  7.84690000e+03  9.11700000e-08  0.00000000e+00
2.57353540e-03  1.72824534e+01  7.22140000e-02  7.77040000e+03  9.71200000e-08  0.00000000e+00
2.59927070e-03  1.72809183e+01  7.22250000e-02  7.69460000e+03  1.03400000e-07  0.00000000e+00
2.62526340e-03  1.72792644e+01  7.22360000e-02  7.61960000e+03  1.10200000e-07  0.00000000e+00
2.65151600e-03  1.72774732e+01  7.22470000e-02  7.54530000e+03  1.17300000e-07  0.00000000e+00
2.67803110e-03  1.72755204e+01  7.22580000e-02  7.47170000e+03  1.24900000e-07  0.00000000e+00
2.70481140e-03  1.72733728e+01  7.22700000e-02  7.39890000e+03  1.33000000e-07  0.00000000e+00
2.73185950e-03  1.72709833e+01  7.22870000e-02  7.32740000e+03  1.41600000e-07  0.00000000e+00
2.75917810e-03  1.72682816e+01  7.22990000e-02  7.25610000e+03  1.50700000e-07  0.00000000e+00
2.78676980e-03  1.72651552e+01  7.23130000e-02  7.18560000e+03  1.60300000e-07  0.00000000e+00
2.81463750e-03  1.72614059e+01  7.23270000e-02  7.11590000e+03  1.70600000e-07  0.00000000e+00
2.84278380e-03  1.72566288e+01  7.23430000e-02  7.04700000e+03  1.81500000e-07  0.00000000e+00
2.87121160e-03  1.72497520e+01  7.23660000e-02  6.97940000e+03  1.93100000e-07  0.00000000e+00
2.89992370e-03  1.72352459e+01  7.24420000e-02  6.91760000e+03  2.05400000e-07  0.00000000e+00
2.92892290e-03  1.72377222e+01  1.05460000e-01  9.97080000e+03  2.18400000e-07  0.00000000e+00
2.95821210e-03  1.72465125e+01  1.06100000e-01  9.93180000e+03  2.32300000e-07  0.00000000e+00
2.98779420e-03  1.72502154e+01  1.06720000e-01  9.89080000e+03  2.47000000e-07  0.00000000e+00
3.01767220e-03  1.72522862e+01  1.07340000e-01  9.85020000e+03  2.62600000e-07  0.00000000e+00
3.04784880e-03  1.72535389e+01  1.07970000e-01  9.81020000e+03  2.79100000e-07  0.00000000e+00
3.07832730e-03  1.72542958e+01  1.08620000e-01  9.77100000e+03  2.96700000e-07  0.00000000e+00
3.10911050e-03  1.72547530e+01  1.09270000e-01  9.73260000e+03  3.15300000e-07  0.00000000e+00
3.14020160e-03  1.72549302e+01  1.09940000e-01  9.69540000e+03  3.35000000e-07  0.00000000e+00
3.17160360e-03  1.72549206e+01  1.10620000e-01  9.65860000e+03  3.55900000e-07  0.00000000e+00
3.20331960e-03  1.72547630e+01  1.11310000e-01  9.62250000e+03  3.78100000e-07  0.00000000e+00
3.23535280e-03  1.72544848e+01  1.12010000e-01  9.58700000e+03  4.01600000e-07  0.00000000e+00
3.26770630e-03  1.72541033e+01  1.12710000e-01  9.55190000e+03  4.26600000e-07  0.00000000e+00
3.30038330e-03  1.72536307e+01  1.13430000e-01  9.51700000e+03  4.53000000e-07  0.00000000e+00
3.33338710e-03  1.72530765e+01  1.14140000e-01  9.48240000e+03  4.81000000e-07  0.00000000e+00
3.36672100e-03  1.72524480e+01  1.14870000e-01  9.44810000e+03  5.10600000e-07  0.00000000e+00
3.40038810e-03  1.72517511e+01  1.15600000e-01  9.41420000e+03  5.42000000e-07  0.00000000e+00
3.43439200e-03  1.72509896e+01  1.16340000e-01  9.38050000e+03  5.75300000e-07  0.00000000e+00
3.46873590e-03  1.72501683e+01  1.17080000e-01  9.34720000e+03  6.10600000e-07  0.00000000e+00
3.50342320e-03  1.72492895e+01  1.17840000e-01  9.31410000e+03  6.47900000e-07  0.00000000e+00
3.53845740e-03  1.72483553e+01  1.18600000e-01  9.28130000e+03  6.87400000e-07  0.00000000e+00
3.57384190e-03  1.72473675e+01  1.19360000e-01  9.24890000e+03  7.29300000e-07  0.00000000e+00
3.60958030e-03  1.72463275e+01  1.20140000e-01  9.21680000e+03  7.73500000e-07  0.00000000e+00
3.64567610e-03  1.72452364e+01  1.20920000e-01  9.18490000e+03  8.20400000e-07  0.00000000e+00
3.68213280e-03  1.72440949e+01  1.21710000e-01  9.15340000e+03  8.70000000e-07  0.00000000e+00
3.71895410e-03  1.72429036e+01  1.22510000e-01  9.12220000e+03  9.22500000e-07  0.00000000e+00
3.75614360e-03  1.72416629e+01  1.23320000e-01  9.09140000e+03  9.78100000e-07  0.00000000e+00
3.79370500e-03  1.72403731e+01  1.24130000e-01  9.06080000e+03  1.03700000e-06  0.00000000e+00
3.83164200e-03  1.72390341e+01  1.24950000e-01  9.03060000e+03  1.09900000e-06  0.00000000e+00
3.86995840e-03  1.72376461e+01  1.25790000e-01  9.00070000e+03  1.16500000e-06  0.00000000e+00
3.90865800e-03  1.72362087e+01  1.26630000e-01  8.97110000e+03  1.23400000e-06  0.00000000e+00
3.94774450e-03  1.72347218e+01  1.27480000e-01  8.94190000e+03  1.30800000e-06  0.00000000e+00
3.98722190e-03  1.72331850e+01  1.28330000e-01  8.91300000e+03  1.38500000e-06  0.00000000e+00
4.02709410e-03  1.72315979e+01  1.29200000e-01  8.88440000e+03  1.46700000e-06  0.00000000e+00
4.06736500e-03  1.72299601e+01  1.30080000e-01  8.85620000e+03  1.55400000e-06  0.00000000e+00
4.10803860e-03  1.72282710e+01  1.30970000e-01  8.82830000e+03  1.64600000e-06  0.00000000e+00
4.14911890e-03  1.72265300e+01  1.31860000e-01  8.80080000e+03  1.74300000e-06  0.00000000e+00
4.19061010e-03  1.72247364e+01  1.32770000e-01  8.77360000e+03  1.84500000e-06  0.00000000e+00
4.23251620e-03  1.72228896e+01  1.33690000e-01  8.74690000e+03  1.95300000e-06  0.00000000e+00
4.27484130e-03  1.72209887e+01  1.34620000e-01  8.72040000e+03  2.06800000e-06  0.00000000e+00
4.31758960e-03  1.72190329e+01  1.35560000e-01  8.69440000e+03  2.18800000e-06  0.00000000e+00
4.36076550e-03  1.72170215e+01  1.36510000e-01  8.66870000e+03  2.31600000e-06  0.00000000e+00
4.40437310e-03  1.72149535e+01  1.37470000e-01  8.64340000e+03  2.45000000e-06  0.00000000e+00
4.44841680e-03  1.72128279e+01  1.38450000e-01  8.61840000e+03  2.59200000e-06  0.00000000e+00
4.49290090e-03  1.72106439e+01  1.39430000e-01  8.59390000e+03  2.74200000e-06  0.00000000e+00
4.53782990e-03  1.72084003e+01  1.40430000e-01  8.56980000e+03  2.90100000e-06  0.00000000e+00
4.58320820e-03  1.72060961e+01  1.41440000e-01  8.54600000e+03  3.06800000e-06  0.00000000e+00
4.62904020e-03  1.72037303e+01  1.42470000e-01  8.52260000e+03  3.24400000e-06  0.00000000e+00
4.67533060e-03  1.72013017e+01  1.43500000e-01  8.49970000e+03  3.43000000e-06  0.00000000e+00
4.72208380e-03  1.71988091e+01  1.44560000e-01  8.47720000e+03  3.62600000e-06  0.00000000e+00
4.76930460e-03  1.71962514e+01  1.45620000e-01  8.45500000e+03  3.83300000e-06  0.00000000e+00
4.81699760e-03  1.71936272e+01  1.46700000e-01  8.43330000e+03  4.05100000e-06  0.00000000e+00
4.86516750e-03  1.71909353e+01  1.47790000e-01  8.41210000e+03  4.28100000e-06  0.00000000e+00
4.91381920e-03  1.71881744e+01  1.48900000e-01  8.39120000e+03  4.52400000e-06  0.00000000e+00
4.96295730e-03  1.71853432e+01  1.50020000e-01  8.37080000e+03  4.78000000e-06  0.00000000e+00
5.01258680e-03  1.71824402e+01  1.51160000e-01  8.35080000e+03  5.04900000e-06  0.00000000e+00
5.06271270e-03  1.71794640e+01  1.52320000e-01  8.33130000e+03  5.33300000e-06  0.00000000e+00
5.11333970e-03  1.71764132e+01  1.53490000e-01  8.31220000e+03  5.63300000e-06  0.00000000e+00
5.16447310e-03  1.71732861e+01  1.54670000e-01  8.29350000e+03  5.94800000e-06  0.00000000e+00
5.21611780e-03  1.71700814e+01  1.55880000e-01  8.27530000e+03  6.28100000e-06  0.00000000e+00
5.26827890e-03  1.71667974e+01  1.57100000e-01  8.25760000e+03  6.63100000e-06  0.00000000e+00
5.32096160e-03  1.71634324e+01  1.58340000e-01  8.24040000e+03  7.00000000e-06  0.00000000e+00
5.37417120e-03  1.71599848e+01  1.59600000e-01  8.22360000e+03  7.38900000e-06  0.00000000e+00
5.42791290e-03  1.71564528e+01  1.60870000e-01  8.20730000e+03  7.79800000e-06  0.00000000e+00
5.48219190e-03  1.71528348e+01  1.62170000e-01  8.19140000e+03  8.22900000e-06  0.00000000e+00
5.53701380e-03  1.71491289e+01  1.63480000e-01  8.17610000e+03  8.68200000e-06  0.00000000e+00
5.59238390e-03  1.71453332e+01  1.64820000e-01  8.16120000e+03  9.16000000e-06  0.00000000e+00
5.64830770e-03  1.71414458e+01  1.66170000e-01  8.14680000e+03  9.66200000e-06  0.00000000e+00
5.70479070e-03  1.71374648e+01  1.67550000e-01  8.13300000e+03  1.01900000e-05  0.00000000e+00
5.76183850e-03  1.71333882e+01  1.68950000e-01  8.11960000e+03  1.07500000e-05  0.00000000e+00
5.81945690e-03  1.71292139e+01  1.70360000e-01  8.10670000e+03  1.13300000e-05  0.00000000e+00
5.87765140e-03  1.71249399e+01  1.71810000e-01  8.09440000e+03  1.19500000e-05  0.00000000e+00
5.93642780e-03  1.71205639e+01  1.73270000e-01  8.08260000e+03  1.26000000e-05  0.00000000e+00
5.99579210e-03  1.71160837e+01  1.74760000e-01  8.07120000e+03  1.32800000e-05  0.00000000e+00
6.05574990e-03  1.71114971e+01  1.76270000e-01  8.06040000e+03  1.40000000e-05  0.00000000e+00
6.11630740e-03  1.71068018e+01  1.77810000e-01  8.05020000e+03  1.47500000e-05  0.00000000e+00
6.17747040e-03  1.71019953e+01  1.79370000e-01  8.04050000e+03  1.55400000e-05  0.00000000e+00
6.23924500e-03  1.70970752e+01  1.80950000e-01  8.03130000e+03  1.63700000e-05  0.00000000e+00
6.30163740e-03  1.70920390e+01  1.82570000e-01  8.02260000e+03  1.72500000e-05  0.00000000e+00
6.36465370e-03  1.70868840e+01  1.84210000e-01  8.01450000e+03  1.81700000e-05  0.00000000e+00
6.42830020e-03  1.70816076e+01  1.85870000e-01  8.00700000e+03  1.91400000e-05  0.00000000e+00
6.49258320e-03  1.70762071e+01  1.87570000e-01  8.00000000e+03  2.01500000e-05  0.00000000e+00
6.55750890e-03  1.70706797e+01  1.89290000e-01  7.99360000e+03  2.12200000e-05  0.00000000e+00
6.62308400e-03  1.70650225e+01  1.91040000e-01  7.98770000e+03  2.23400000e-05  0.00000000e+00
6.68931470e-03  1.70592325e+01  1.92830000e-01  7.98240000e+03  2.35200000e-05  0.00000000e+00
6.75620780e-03  1.70533067e+01  1.94640000e-01  7.97770000e+03  2.47600000e-05  0.00000000e+00
6.82376980e-03  1.70472419e+01  1.96480000e-01  7.97350000e+03  2.60600000e-05  0.00000000e+00
6.89200750e-03  1.70410350e+01  1.98360000e-01  7.97000000e+03  2.74200000e-05  0.00000000e+00
6.96092750e-03  1.70346827e+01  2.00270000e-01  7.96700000e+03  2.88500000e-05  0.00000000e+00
7.03053670e-03  1.70281815e+01  2.02210000e-01  7.96460000e+03  3.03500000e-05  0.00000000e+00
7.10084200e-03  1.70215279e+01  2.04190000e-01  7.96280000e+03  3.19300000e-05  0.00000000e+00
