#  Tb:    Z = 65;   Atomic weight = 158.9254 g/mol ;    nominal density:   [INLINE] = 8.2140E+00 g/cm3
#         a(barns/atom) = (cm2/g)    2.63902E+02
#         E(eV) (cm2/g) = f2(e/atom)    2.64780E+05
#         19 edges. Edge energies (keV):
# K      5.19957E+01  L I    8.70800E+00  L II   8.25160E+00  L III  7.51400E+00
# M I    1.96750E+00  M II   1.76770E+00  M III  1.61130E+00  M IV   1.27500E+00
# M V    1.24120E+00  N I    3.97900E-01  N II   3.10200E-01  N III  2.85000E-01
# N IV   1.47000E-01  N V    1.47000E-01  N VI   9.40000E-03  N VII  8.60000E-03
# O I    3.90000E-02  O II   2.54000E-02  O III  2.54000E-02
#         Relativistic correction estimate frel (H82,3/5CL) = -1.0366E+00, -6.2340E-01 e/atom
#         Nuclear Thomson correction fNT = -1.4584E-02 e/atom
#    _________________________________________________________________________________________________________
#  Form Factors, Attenuation and Scattering Cross-sections
#  Z=65, E = 0.001 - 1000 keV
#                                                             Attenuation
#    E         f1            f2                     [INLINE] (coh+inc) Coefficient    K       wavelength
#    keV       e/atom       e/atom      cm2/g       cm2/g      cm2/g          cm2/g        nm
1.01000000e-03  1.55964268e+01  8.01650000e-02  2.10160000e+04  1.74200000e-10  0.00000000e+00
1.02010000e-03  1.56126809e+01  8.01690000e-02  2.08090000e+04  1.87600000e-10  0.00000000e+00
1.03030100e-03  1.56234350e+01  8.01730000e-02  2.06040000e+04  2.01900000e-10  0.00000000e+00
1.04060400e-03  1.56298096e+01  8.01780000e-02  2.04010000e+04  2.17400000e-10  0.00000000e+00
1.05101010e-03  1.56355915e+01  8.01820000e-02  2.02000000e+04  2.34000000e-10  0.00000000e+00
1.06152010e-03  1.56398930e+01  8.01870000e-02  2.00010000e+04  2.51800000e-10  0.00000000e+00
1.07213530e-03  1.56439218e+01  8.01910000e-02  1.98040000e+04  2.71000000e-10  0.00000000e+00
1.08285670e-03  1.56471922e+01  8.01960000e-02  1.96090000e+04  2.91600000e-10  0.00000000e+00
1.09368520e-03  1.56501370e+01  8.02000000e-02  1.94160000e+04  3.13800000e-10  0.00000000e+00
1.10462210e-03  1.56528162e+01  8.02050000e-02  1.92250000e+04  3.37600000e-10  0.00000000e+00
1.11566830e-03  1.56552746e+01  8.02100000e-02  1.90360000e+04  3.63100000e-10  0.00000000e+00
1.12682500e-03  1.56575468e+01  8.02150000e-02  1.88490000e+04  3.90600000e-10  0.00000000e+00
1.13809320e-03  1.56596598e+01  8.02190000e-02  1.86630000e+04  4.20100000e-10  0.00000000e+00
1.14947410e-03  1.56617726e+01  8.02240000e-02  1.84800000e+04  4.51800000e-10  0.00000000e+00
1.16096880e-03  1.56636239e+01  8.02290000e-02  1.82980000e+04  4.85800000e-10  0.00000000e+00
1.17257850e-03  1.56653694e+01  8.02340000e-02  1.81180000e+04  5.22300000e-10  0.00000000e+00
1.18430430e-03  1.56673669e+01  8.02390000e-02  1.79390000e+04  5.61500000e-10  0.00000000e+00
1.19614730e-03  1.56689067e+01  8.02440000e-02  1.77630000e+04  6.03600000e-10  0.00000000e+00
1.20810880e-03  1.56703738e+01  8.02490000e-02  1.75880000e+04  6.48800000e-10  0.00000000e+00
1.22018990e-03  1.56717750e+01  8.02550000e-02  1.74150000e+04  6.97200000e-10  0.00000000e+00
1.23239180e-03  1.56732939e+01  8.02600000e-02  1.72440000e+04  7.49200000e-10  0.00000000e+00
1.24471570e-03  1.56745666e+01  8.02650000e-02  1.70740000e+04  8.05000000e-10  0.00000000e+00
1.25716280e-03  1.56757900e+01  8.02700000e-02  1.69060000e+04  8.64900000e-10  0.00000000e+00
1.26973440e-03  1.56769678e+01  8.02760000e-02  1.67400000e+04  9.29100000e-10  0.00000000e+00
1.28243180e-03  1.56781034e+01  8.02810000e-02  1.65750000e+04  9.97900000e-10  0.00000000e+00
1.29525610e-03  1.56791997e+01  8.02870000e-02  1.64120000e+04  1.07200000e-09  0.00000000e+00
1.30820860e-03  1.56802593e+01  8.02920000e-02  1.62510000e+04  1.15100000e-09  0.00000000e+00
1.32129070e-03  1.56813382e+01  8.02980000e-02  1.60910000e+04  1.23600000e-09  0.00000000e+00
1.33450360e-03  1.56823303e+01  8.03040000e-02  1.59330000e+04  1.32700000e-09  0.00000000e+00
1.34784860e-03  1.56832920e+01  8.03090000e-02  1.57770000e+04  1.42400000e-09  0.00000000e+00
1.36132710e-03  1.56842250e+01  8.03150000e-02  1.56210000e+04  1.52900000e-09  0.00000000e+00
1.37494030e-03  1.56851308e+01  8.03210000e-02  1.54680000e+04  1.64100000e-09  0.00000000e+00
1.38868970e-03  1.56860107e+01  8.03270000e-02  1.53160000e+04  1.76100000e-09  0.00000000e+00
1.40257660e-03  1.56868662e+01  8.03330000e-02  1.51650000e+04  1.88900000e-09  0.00000000e+00
1.41660240e-03  1.56876982e+01  8.03390000e-02  1.50160000e+04  2.02700000e-09  0.00000000e+00
1.43076840e-03  1.56885078e+01  8.03450000e-02  1.48690000e+04  2.17400000e-09  0.00000000e+00
1.44507600e-03  1.56892960e+01  8.03510000e-02  1.47230000e+04  2.33200000e-09  0.00000000e+00
1.45952680e-03  1.56900637e+01  8.03570000e-02  1.45780000e+04  2.50100000e-09  0.00000000e+00
1.47412200e-03  1.56908116e+01  8.03640000e-02  1.44350000e+04  2.68200000e-09  0.00000000e+00
1.48886320e-03  1.56915406e+01  8.03700000e-02  1.42930000e+04  2.87500000e-09  0.00000000e+00
1.50375190e-03  1.56922512e+01  8.03760000e-02  1.41530000e+04  3.08200000e-09  0.00000000e+00
1.51878940e-03  1.56929440e+01  8.03830000e-02  1.40140000e+04  3.30400000e-09  0.00000000e+00
1.53397720e-03  1.56936198e+01  8.03890000e-02  1.38760000e+04  3.54100000e-09  0.00000000e+00
1.54931700e-03  1.56942789e+01  8.03960000e-02  1.37400000e+04  3.79500000e-09  0.00000000e+00
1.56481020e-03  1.56949218e+01  8.04030000e-02  1.36050000e+04  4.06700000e-09  0.00000000e+00
1.58045820e-03  1.56955491e+01  8.04100000e-02  1.34710000e+04  4.35700000e-09  0.00000000e+00
1.59626280e-03  1.56961611e+01  8.04160000e-02  1.33390000e+04  4.66800000e-09  0.00000000e+00
1.61222540e-03  1.56967582e+01  8.04230000e-02  1.32080000e+04  5.00000000e-09  0.00000000e+00
1.62834770e-03  1.56973407e+01  8.04300000e-02  1.30780000e+04  5.35500000e-09  0.00000000e+00
1.64463110e-03  1.56979090e+01  8.04370000e-02  1.29500000e+04  5.73500000e-09  0.00000000e+00
1.66107740e-03  1.56984634e+01  8.04440000e-02  1.28230000e+04  6.14100000e-09  0.00000000e+00
1.67768820e-03  1.56990040e+01  8.04510000e-02  1.26970000e+04  6.57400000e-09  0.00000000e+00
1.69446500e-03  1.56995313e+01  8.04590000e-02  1.25730000e+04  7.03800000e-09  0.00000000e+00
1.71140970e-03  1.57000453e+01  8.04660000e-02  1.24490000e+04  7.53300000e-09  0.00000000e+00
1.72852380e-03  1.57005463e+01  8.04730000e-02  1.23270000e+04  8.06200000e-09  0.00000000e+00
1.74580900e-03  1.57010345e+01  8.04810000e-02  1.22060000e+04  8.62700000e-09  0.00000000e+00
1.76326710e-03  1.57015101e+01  8.04880000e-02  1.20870000e+04  9.23100000e-09  0.00000000e+00
1.78089970e-03  1.57019732e+01  8.04960000e-02  1.19680000e+04  9.87500000e-09  0.00000000e+00
1.79870870e-03  1.57024239e+01  8.05040000e-02  1.18510000e+04  1.05600000e-08  0.00000000e+00
1.81669580e-03  1.57028624e+01  8.05110000e-02  1.17340000e+04  1.13000000e-08  0.00000000e+00
1.83486270e-03  1.57032888e+01  8.05190000e-02  1.16190000e+04  1.20800000e-08  0.00000000e+00
1.85321130e-03  1.57037031e+01  8.05270000e-02  1.15050000e+04  1.29200000e-08  0.00000000e+00
1.87174340e-03  1.57041055e+01  8.05350000e-02  1.13930000e+04  1.38100000e-08  0.00000000e+00
1.89046080e-03  1.57044960e+01  8.05430000e-02  1.12810000e+04  1.47700000e-08  0.00000000e+00
1.90936540e-03  1.57048747e+01  8.05520000e-02  1.11700000e+04  1.57800000e-08  0.00000000e+00
1.92845900e-03  1.57052416e+01  8.05600000e-02  1.10610000e+04  1.68700000e-08  0.00000000e+00
1.94774360e-03  1.57055968e+01  8.05680000e-02  1.09530000e+04  1.80300000e-08  0.00000000e+00
1.96722100e-03  1.57059403e+01  8.05770000e-02  1.08450000e+04  1.92600000e-08  0.00000000e+00
1.98689320e-03  1.57062720e+01  8.05850000e-02  1.07390000e+04  2.05800000e-08  0.00000000e+00
2.00676210e-03  1.57065921e+01  8.05940000e-02  1.06340000e+04  2.19800000e-08  0.00000000e+00
2.02682970e-03  1.57069005e+01  8.06020000e-02  1.05300000e+04  2.34800000e-08  0.00000000e+00
2.04709800e-03  1.57071971e+01  8.06110000e-02  1.04270000e+04  2.50800000e-08  0.00000000e+00
2.06756900e-03  1.57074820e+01  8.06200000e-02  1.03250000e+04  2.67800000e-08  0.00000000e+00
2.08824460e-03  1.57077552e+01  8.06290000e-02  1.02230000e+04  2.85900000e-08  0.00000000e+00
2.10912710e-03  1.57080165e+01  8.06380000e-02  1.01230000e+04  3.05200000e-08  0.00000000e+00
2.13021830e-03  1.57082660e+01  8.06470000e-02  1.00240000e+04  3.25800000e-08  0.00000000e+00
2.15152050e-03  1.57085035e+01  8.06570000e-02  9.92610000e+03  3.47700000e-08  0.00000000e+00
2.17303570e-03  1.57087291e+01  8.06660000e-02  9.82900000e+03  3.71100000e-08  0.00000000e+00
2.19476600e-03  1.57089427e+01  8.06750000e-02  9.73280000e+03  3.95900000e-08  0.00000000e+00
2.21671360e-03  1.57091441e+01  8.06850000e-02  9.63760000e+03  4.22400000e-08  0.00000000e+00
2.23888080e-03  1.57093333e+01  8.06950000e-02  9.54330000e+03  4.50600000e-08  0.00000000e+00
2.26126950e-03  1.57095102e+01  8.07040000e-02  9.45000000e+03  4.80600000e-08  0.00000000e+00
2.28388220e-03  1.57096747e+01  8.07140000e-02  9.35750000e+03  5.12600000e-08  0.00000000e+00
2.30672100e-03  1.57098267e+01  8.07240000e-02  9.26600000e+03  5.46600000e-08  0.00000000e+00
2.32978820e-03  1.57099660e+01  8.07340000e-02  9.17540000e+03  5.82800000e-08  0.00000000e+00
2.35308610e-03  1.57100926e+01  8.07440000e-02  9.08570000e+03  6.21300000e-08  0.00000000e+00
2.37661690e-03  1.57102063e+01  8.07540000e-02  8.99690000e+03  6.62200000e-08  0.00000000e+00
2.40038310e-03  1.57103070e+01  8.07650000e-02  8.90900000e+03  7.05800000e-08  0.00000000e+00
2.42438690e-03  1.57103945e+01  8.07750000e-02  8.82190000e+03  7.52200000e-08  0.00000000e+00
2.44863070e-03  1.57104686e+01  8.07860000e-02  8.73570000e+03  8.01400000e-08  0.00000000e+00
2.47311700e-03  1.57105293e+01  8.07960000e-02  8.65030000e+03  8.53900000e-08  0.00000000e+00
2.49784810e-03  1.57105763e+01  8.08070000e-02  8.56580000e+03  9.09600000e-08  0.00000000e+00
2.52282660e-03  1.57106095e+01  8.08180000e-02  8.48220000e+03  9.68800000e-08  0.00000000e+00
2.54805480e-03  1.57106287e+01  8.08290000e-02  8.39930000e+03  1.03200000e-07  0.00000000e+00
2.57353540e-03  1.57106337e+01  8.08400000e-02  8.31730000e+03  1.09900000e-07  0.00000000e+00
2.59927070e-03  1.57106243e+01  8.08520000e-02  8.23610000e+03  1.17000000e-07  0.00000000e+00
2.62526340e-03  1.57106003e+01  8.08630000e-02  8.15570000e+03  1.24500000e-07  0.00000000e+00
2.65151600e-03  1.57105615e+01  8.08740000e-02  8.07610000e+03  1.32600000e-07  0.00000000e+00
2.67803110e-03  1.57105076e+01  8.08860000e-02  7.99730000e+03  1.41100000e-07  0.00000000e+00
2.70481140e-03  1.57104385e+01  8.08980000e-02  7.91930000e+03  1.50200000e-07  0.00000000e+00
2.73185950e-03  1.57103539e+01  8.09100000e-02  7.84200000e+03  1.59800000e-07  0.00000000e+00
2.75917810e-03  1.57102536e+01  8.09210000e-02  7.76550000e+03  1.70000000e-07  0.00000000e+00
2.78676980e-03  1.57101373e+01  8.09340000e-02  7.68980000e+03  1.80800000e-07  0.00000000e+00
2.81463750e-03  1.57100047e+01  8.09460000e-02  7.61480000e+03  1.92300000e-07  0.00000000e+00
2.84278380e-03  1.57098557e+01  8.09580000e-02  7.54050000e+03  2.04600000e-07  0.00000000e+00
2.87121160e-03  1.57096899e+01  8.09710000e-02  7.46700000e+03  2.17500000e-07  0.00000000e+00
2.89992370e-03  1.57095070e+01  8.09830000e-02  7.39420000e+03  2.31300000e-07  0.00000000e+00
2.92892290e-03  1.57093067e+01  8.09960000e-02  7.32220000e+03  2.45900000e-07  0.00000000e+00
2.95821210e-03  1.57090888e+01  8.10090000e-02  7.25080000e+03  2.61400000e-07  0.00000000e+00
2.98779420e-03  1.57088530e+01  8.10220000e-02  7.18020000e+03  2.77800000e-07  0.00000000e+00
3.01767220e-03  1.57085989e+01  8.10350000e-02  7.11030000e+03  2.95200000e-07  0.00000000e+00
3.04784880e-03  1.57083261e+01  8.10480000e-02  7.04100000e+03  3.13700000e-07  0.00000000e+00
3.07832730e-03  1.57080344e+01  8.10610000e-02  6.97240000e+03  3.33300000e-07  0.00000000e+00
3.10911050e-03  1.57077235e+01  8.10750000e-02  6.90460000e+03  3.54100000e-07  0.00000000e+00
3.14020160e-03  1.57073929e+01  8.10890000e-02  6.83740000e+03  3.76100000e-07  0.00000000e+00
3.17160360e-03  1.57070423e+01  8.11020000e-02  6.77080000e+03  3.99500000e-07  0.00000000e+00
3.20331960e-03  1.57066713e+01  8.11160000e-02  6.70490000e+03  4.24200000e-07  0.00000000e+00
3.23535280e-03  1.57062796e+01  8.11310000e-02  6.63970000e+03  4.50400000e-07  0.00000000e+00
3.26770630e-03  1.57058667e+01  8.11450000e-02  6.57510000e+03  4.78200000e-07  0.00000000e+00
3.30038330e-03  1.57054692e+01  8.11590000e-02  6.51120000e+03  5.07600000e-07  0.00000000e+00
3.33338710e-03  1.57050124e+01  8.11740000e-02  6.44790000e+03  5.38800000e-07  0.00000000e+00
3.36672100e-03  1.57045331e+01  8.11880000e-02  6.38520000e+03  5.71800000e-07  0.00000000e+00
3.40038810e-03  1.57040310e+01  8.12030000e-02  6.32310000e+03  6.06800000e-07  0.00000000e+00
3.43439200e-03  1.57035056e+01  8.12180000e-02  6.26170000e+03  6.43800000e-07  0.00000000e+00
3.46873590e-03  1.57029564e+01  8.12330000e-02  6.20080000e+03  6.83000000e-07  0.00000000e+00
3.50342320e-03  1.57023830e+01  8.12490000e-02  6.14060000e+03  7.24400000e-07  0.00000000e+00
3.53845740e-03  1.57017849e+01  8.12640000e-02  6.08090000e+03  7.68300000e-07  0.00000000e+00
3.57384190e-03  1.57011616e+01  8.12800000e-02  6.02190000e+03  8.14800000e-07  0.00000000e+00
3.60958030e-03  1.57005125e+01  8.12960000e-02  5.96340000e+03  8.64000000e-07  0.00000000e+00
3.64567610e-03  1.56998371e+01  8.13120000e-02  5.90560000e+03  9.16000000e-07  0.00000000e+00
3.68213280e-03  1.56991350e+01  8.13280000e-02  5.84820000e+03  9.71000000e-07  0.00000000e+00
3.71895410e-03  1.56984054e+01  8.13440000e-02  5.79150000e+03  1.02900000e-06  0.00000000e+00
3.75614360e-03  1.56976480e+01  8.13610000e-02  5.73530000e+03  1.09100000e-06  0.00000000e+00
3.79370500e-03  1.56968620e+01  8.13770000e-02  5.67970000e+03  1.15600000e-06  0.00000000e+00
3.83164200e-03  1.56960468e+01  8.13940000e-02  5.62460000e+03  1.22500000e-06  0.00000000e+00
3.86995840e-03  1.56952020e+01  8.14110000e-02  5.57010000e+03  1.29800000e-06  0.00000000e+00
3.90865800e-03  1.56943267e+01  8.14280000e-02  5.51610000e+03  1.37400000e-06  0.00000000e+00
3.94774450e-03  1.56934204e+01  8.14460000e-02  5.46270000e+03  1.45600000e-06  0.00000000e+00
3.98722190e-03  1.56924824e+01  8.14630000e-02  5.40980000e+03  1.54200000e-06  0.00000000e+00
4.02709410e-03  1.56915120e+01  8.14810000e-02  5.35740000e+03  1.63300000e-06  0.00000000e+00
4.06736500e-03  1.56905085e+01  8.14990000e-02  5.30550000e+03  1.72800000e-06  0.00000000e+00
4.10803860e-03  1.56894712e+01  8.15170000e-02  5.25410000e+03  1.83000000e-06  0.00000000e+00
4.14911890e-03  1.56883993e+01  8.15350000e-02  5.20330000e+03  1.93700000e-06  0.00000000e+00
4.19061010e-03  1.56872920e+01  8.15540000e-02  5.15290000e+03  2.05000000e-06  0.00000000e+00
4.23251620e-03  1.56861487e+01  8.15730000e-02  5.10310000e+03  2.16900000e-06  0.00000000e+00
4.27484130e-03  1.56849683e+01  8.15910000e-02  5.05370000e+03  2.29600000e-06  0.00000000e+00
4.31758960e-03  1.56837503e+01  8.16110000e-02  5.00480000e+03  2.42900000e-06  0.00000000e+00
4.36076550e-03  1.56824935e+01  8.16300000e-02  4.95650000e+03  2.56900000e-06  0.00000000e+00
4.40437310e-03  1.56811973e+01  8.16490000e-02  4.90860000e+03  2.71700000e-06  0.00000000e+00
4.44841680e-03  1.56798606e+01  8.16690000e-02  4.86110000e+03  2.87400000e-06  0.00000000e+00
4.49290090e-03  1.56784826e+01  8.16890000e-02  4.81420000e+03  3.03900000e-06  0.00000000e+00
4.53782990e-03  1.56770623e+01  8.17090000e-02  4.76770000e+03  3.21300000e-06  0.00000000e+00
4.58320820e-03  1.56755987e+01  8.17290000e-02  4.72170000e+03  3.39700000e-06  0.00000000e+00
4.62904020e-03  1.56740907e+01  8.17500000e-02  4.67610000e+03  3.59100000e-06  0.00000000e+00
4.67533060e-03  1.56725374e+01  8.17710000e-02  4.63100000e+03  3.79600000e-06  0.00000000e+00
4.72208380e-03  1.56709381e+01  8.17920000e-02  4.58630000e+03  4.01100000e-06  0.00000000e+00
4.76930460e-03  1.56692908e+01  8.18130000e-02  4.54210000e+03  4.23900000e-06  0.00000000e+00
4.81699760e-03  1.56675946e+01  8.18340000e-02  4.49830000e+03  4.47900000e-06  0.00000000e+00
4.86516750e-03  1.56658487e+01  8.18560000e-02  4.45490000e+03  4.73100000e-06  0.00000000e+00
4.91381920e-03  1.56640517e+01  8.18780000e-02  4.41200000e+03  4.99800000e-06  0.00000000e+00
4.96295730e-03  1.56622023e+01  8.19000000e-02  4.36950000e+03  5.27900000e-06  0.00000000e+00
5.01258680e-03  1.56602993e+01  8.19220000e-02  4.32740000e+03  5.57500000e-06  0.00000000e+00
5.06271270e-03  1.56583422e+01  8.19450000e-02  4.28570000e+03  5.88600000e-06  0.00000000e+00
5.11333970e-03  1.56563278e+01  8.19680000e-02  4.24450000e+03  6.21500000e-06  0.00000000e+00
5.16447310e-03  1.56542555e+01  8.19910000e-02  4.20360000e+03  6.56100000e-06  0.00000000e+00
5.21611780e-03  1.56521236e+01  8.20140000e-02  4.16320000e+03  6.92500000e-06  0.00000000e+00
5.26827890e-03  1.56499311e+01  8.20380000e-02  4.12320000e+03  7.30900000e-06  0.00000000e+00
5.32096160e-03  1.56476762e+01  8.20620000e-02  4.08350000e+03  7.71300000e-06  0.00000000e+00
5.37417120e-03  1.56453571e+01  8.20860000e-02  4.04430000e+03  8.13900000e-06  0.00000000e+00
5.42791290e-03  1.56429722e+01  8.21100000e-02  4.00540000e+03  8.58600000e-06  0.00000000e+00
5.48219190e-03  1.56405198e+01  8.21350000e-02  3.96700000e+03  9.05800000e-06  0.00000000e+00
5.53701380e-03  1.56379979e+01  8.21600000e-02  3.92890000e+03  9.55400000e-06  0.00000000e+00
5.59238390e-03  1.56354046e+01  8.21850000e-02  3.89120000e+03  1.00800000e-05  0.00000000e+00
5.64830770e-03  1.56327380e+01  8.22100000e-02  3.85380000e+03  1.06300000e-05  0.00000000e+00
5.70479070e-03  1.56299960e+01  8.22360000e-02  3.81690000e+03  1.12000000e-05  0.00000000e+00
5.76183850e-03  1.56271764e+01  8.22620000e-02  3.78030000e+03  1.18100000e-05  0.00000000e+00
5.81945690e-03  1.56242769e+01  8.22880000e-02  3.74400000e+03  1.24500000e-05  0.00000000e+00
5.87765140e-03  1.56212953e+01  8.23150000e-02  3.70820000e+03  1.31200000e-05  0.00000000e+00
5.93642780e-03  1.56182290e+01  8.23420000e-02  3.67260000e+03  1.38300000e-05  0.00000000e+00
5.99579210e-03  1.56150754e+01  8.23690000e-02  3.63750000e+03  1.45700000e-05  0.00000000e+00
6.05574990e-03  1.56118319e+01  8.23960000e-02  3.60270000e+03  1.53600000e-05  0.00000000e+00
6.11630740e-03  1.56084956e+01  8.24240000e-02  3.56820000e+03  1.61800000e-05  0.00000000e+00
6.17747040e-03  1.56050635e+01  8.24520000e-02  3.53410000e+03  1.70400000e-05  0.00000000e+00
6.23924500e-03  1.56015325e+01  8.24800000e-02  3.50030000e+03  1.79500000e-05  0.00000000e+00
6.30163740e-03  1.55978992e+01  8.25090000e-02  3.46680000e+03  1.89000000e-05  0.00000000e+00
6.36465370e-03  1.55941602e+01  8.25380000e-02  3.43370000e+03  1.99100000e-05  0.00000000e+00
6.42830020e-03  1.55903117e+01  8.25670000e-02  3.40090000e+03  2.09600000e-05  0.00000000e+00
6.49258320e-03  1.55863497e+01  8.25960000e-02  3.36840000e+03  2.20600000e-05  0.00000000e+00
6.55750890e-03  1.55822701e+01  8.26260000e-02  3.33630000e+03  2.32200000e-05  0.00000000e+00
6.62308400e-03  1.55780683e+01  8.26560000e-02  3.30450000e+03  2.44400000e-05  0.00000000e+00
6.68931470e-03  1.55737396e+01  8.26870000e-02  3.27300000e+03  2.57200000e-05  0.00000000e+00
6.75620780e-03  1.55692786e+01  8.27180000e-02  3.24180000e+03  2.70700000e-05  0.00000000e+00
6.82376980e-03  1.55646799e+01  8.27490000e-02  3.21090000e+03  2.84800000e-05  0.00000000e+00
6.89200750e-03  1.55599373e+01  8.27800000e-02  3.18030000e+03  2.99600000e-05  0.00000000e+00
6.96092750e-03  1.55550443e+01  8.28120000e-02  3.15000000e+03  3.15200000e-05  0.00000000e+00
7.03053670e-03  1.55499935e+01  8.28450000e-02  3.12000000e+03  3.31500000e-05  0.00000000e+00
7.10084200e-03  1.55447771e+01  8.28770000e-02  3.09040000e+03  3.48600000e-05  0.00000000e+00
