#  Er:    Z = 68;   Atomic weight = 167.2600 g/mol ;    nominal density:   [INLINE] = 9.0390E+00 g/cm3
#         a(barns/atom) = (cm2/g)    2.77742E+02
#         E(eV) (cm2/g) = f2(e/atom)    2.51586E+05
#         19 edges. Edge energies (keV):
# K      5.74855E+01  L I    9.75130E+00  L II   9.26430E+00  L III  8.35790E+00
# M I    2.20650E+00  M II   2.00580E+00  M III  1.81180E+00  M IV   1.45330E+00
# M V    1.40930E+00  N I    4.49100E-01  N II   3.66200E-01  N III  3.20000E-01
# N IV   1.76700E-01  N V    1.67600E-01  N VI   4.30000E-03  N VII  4.30000E-03
# O I    5.98000E-02  O II   2.94000E-02  O III  2.94000E-02
#         Relativistic correction estimate frel (H82,3/5CL) = -1.1649E+00, -6.9660E-01 e/atom
#         Nuclear Thomson correction fNT = -1.5166E-02 e/atom
#    _________________________________________________________________________________________________________
#  Form Factors, Attenuation and Scattering Cross-sections
#  Z=68, E = 0.001 - 1000 keV
#                                                             Attenuation
#    E         f1            f2                     [INLINE] (coh+inc) Coefficient    K       wavelength
#    keV       e/atom       e/atom      cm2/g       cm2/g      cm2/g          cm2/g        nm
1.01000000e-03  1.33849172e+01  9.23940000e-02  2.30150000e+04  1.83300000e-10  0.00000000e+00
1.02010000e-03  1.34028192e+01  9.23980000e-02  2.27880000e+04  1.97500000e-10  0.00000000e+00
1.03030100e-03  1.34160354e+01  9.24030000e-02  2.25640000e+04  2.12700000e-10  0.00000000e+00
1.04060400e-03  1.34230789e+01  9.24070000e-02  2.23410000e+04  2.29100000e-10  0.00000000e+00
1.05101010e-03  1.34289105e+01  9.24120000e-02  2.21210000e+04  2.46700000e-10  0.00000000e+00
1.06152010e-03  1.34343990e+01  9.24160000e-02  2.19030000e+04  2.65600000e-10  0.00000000e+00
1.07213530e-03  1.34389466e+01  9.24210000e-02  2.16870000e+04  2.85900000e-10  0.00000000e+00
1.08285670e-03  1.34425958e+01  9.24260000e-02  2.14740000e+04  3.07800000e-10  0.00000000e+00
1.09368520e-03  1.34458803e+01  9.24300000e-02  2.12620000e+04  3.31300000e-10  0.00000000e+00
1.10462210e-03  1.34488653e+01  9.24350000e-02  2.10530000e+04  3.56600000e-10  0.00000000e+00
1.11566830e-03  1.34516002e+01  9.24400000e-02  2.08450000e+04  3.83700000e-10  0.00000000e+00
1.12682500e-03  1.34541230e+01  9.24450000e-02  2.06400000e+04  4.12800000e-10  0.00000000e+00
1.13809320e-03  1.34564638e+01  9.24490000e-02  2.04370000e+04  4.44100000e-10  0.00000000e+00
1.14947410e-03  1.34586465e+01  9.24540000e-02  2.02360000e+04  4.77800000e-10  0.00000000e+00
1.16096880e-03  1.34606907e+01  9.24590000e-02  2.00360000e+04  5.13900000e-10  0.00000000e+00
1.17257850e-03  1.34626124e+01  9.24640000e-02  1.98390000e+04  5.52600000e-10  0.00000000e+00
1.18430430e-03  1.34645527e+01  9.24700000e-02  1.96440000e+04  5.94300000e-10  0.00000000e+00
1.19614730e-03  1.34662642e+01  9.24750000e-02  1.94500000e+04  6.38900000e-10  0.00000000e+00
1.20810880e-03  1.34681867e+01  9.24800000e-02  1.92590000e+04  6.86900000e-10  0.00000000e+00
1.22018990e-03  1.34697622e+01  9.24850000e-02  1.90690000e+04  7.38300000e-10  0.00000000e+00
1.23239180e-03  1.34712080e+01  9.24900000e-02  1.88810000e+04  7.93600000e-10  0.00000000e+00
1.24471570e-03  1.34725888e+01  9.24960000e-02  1.86960000e+04  8.52800000e-10  0.00000000e+00
1.25716280e-03  1.34739095e+01  9.25010000e-02  1.85120000e+04  9.16300000e-10  0.00000000e+00
1.26973440e-03  1.34753613e+01  9.25070000e-02  1.83290000e+04  9.84500000e-10  0.00000000e+00
1.28243180e-03  1.34765618e+01  9.25120000e-02  1.81490000e+04  1.05800000e-09  0.00000000e+00
1.29525610e-03  1.34777149e+01  9.25180000e-02  1.79700000e+04  1.13600000e-09  0.00000000e+00
1.30820860e-03  1.34788236e+01  9.25230000e-02  1.77940000e+04  1.22000000e-09  0.00000000e+00
1.32129070e-03  1.34798906e+01  9.25290000e-02  1.76180000e+04  1.31000000e-09  0.00000000e+00
1.33450360e-03  1.34809181e+01  9.25350000e-02  1.74450000e+04  1.40700000e-09  0.00000000e+00
1.34784860e-03  1.34819082e+01  9.25410000e-02  1.72730000e+04  1.51000000e-09  0.00000000e+00
1.36132710e-03  1.34828629e+01  9.25470000e-02  1.71030000e+04  1.62100000e-09  0.00000000e+00
1.37494030e-03  1.34837838e+01  9.25520000e-02  1.69350000e+04  1.74000000e-09  0.00000000e+00
1.38868970e-03  1.34847282e+01  9.25580000e-02  1.67690000e+04  1.86700000e-09  0.00000000e+00
1.40257660e-03  1.34855851e+01  9.25640000e-02  1.66040000e+04  2.00400000e-09  0.00000000e+00
1.41660240e-03  1.34864125e+01  9.25710000e-02  1.64400000e+04  2.15000000e-09  0.00000000e+00
1.43076840e-03  1.34872113e+01  9.25770000e-02  1.62790000e+04  2.30600000e-09  0.00000000e+00
1.44507600e-03  1.34879826e+01  9.25830000e-02  1.61190000e+04  2.47400000e-09  0.00000000e+00
1.45952680e-03  1.34887275e+01  9.25890000e-02  1.59600000e+04  2.65300000e-09  0.00000000e+00
1.47412200e-03  1.34894466e+01  9.25960000e-02  1.58030000e+04  2.84500000e-09  0.00000000e+00
1.48886320e-03  1.34901407e+01  9.26020000e-02  1.56480000e+04  3.05100000e-09  0.00000000e+00
1.50375190e-03  1.34908106e+01  9.26090000e-02  1.54940000e+04  3.27100000e-09  0.00000000e+00
1.51878940e-03  1.34914569e+01  9.26150000e-02  1.53420000e+04  3.50600000e-09  0.00000000e+00
1.53397720e-03  1.34920802e+01  9.26220000e-02  1.51910000e+04  3.75800000e-09  0.00000000e+00
1.54931700e-03  1.34926810e+01  9.26280000e-02  1.50410000e+04  4.02700000e-09  0.00000000e+00
1.56481020e-03  1.34932596e+01  9.26350000e-02  1.48940000e+04  4.31500000e-09  0.00000000e+00
1.58045820e-03  1.34938167e+01  9.26420000e-02  1.47470000e+04  4.62300000e-09  0.00000000e+00
1.59626280e-03  1.34943524e+01  9.26490000e-02  1.46020000e+04  4.95300000e-09  0.00000000e+00
1.61222540e-03  1.34948673e+01  9.26560000e-02  1.44590000e+04  5.30500000e-09  0.00000000e+00
1.62834770e-03  1.34953615e+01  9.26630000e-02  1.43170000e+04  5.68200000e-09  0.00000000e+00
1.64463110e-03  1.34958354e+01  9.26700000e-02  1.41760000e+04  6.08500000e-09  0.00000000e+00
1.66107740e-03  1.34962891e+01  9.26770000e-02  1.40370000e+04  6.51500000e-09  0.00000000e+00
1.67768820e-03  1.34967229e+01  9.26840000e-02  1.38990000e+04  6.97500000e-09  0.00000000e+00
1.69446500e-03  1.34971370e+01  9.26920000e-02  1.37620000e+04  7.46600000e-09  0.00000000e+00
1.71140970e-03  1.34975314e+01  9.26990000e-02  1.36270000e+04  7.99200000e-09  0.00000000e+00
1.72852380e-03  1.34979063e+01  9.27070000e-02  1.34930000e+04  8.55200000e-09  0.00000000e+00
1.74580900e-03  1.34982619e+01  9.27140000e-02  1.33610000e+04  9.15100000e-09  0.00000000e+00
1.76326710e-03  1.34985981e+01  9.27220000e-02  1.32300000e+04  9.79100000e-09  0.00000000e+00
1.78089970e-03  1.34989150e+01  9.27300000e-02  1.31000000e+04  1.04700000e-08  0.00000000e+00
1.79870870e-03  1.34992126e+01  9.27370000e-02  1.29710000e+04  1.12000000e-08  0.00000000e+00
1.81669580e-03  1.34994909e+01  9.27450000e-02  1.28440000e+04  1.19800000e-08  0.00000000e+00
1.83486270e-03  1.34997500e+01  9.27530000e-02  1.27180000e+04  1.28100000e-08  0.00000000e+00
1.85321130e-03  1.34999897e+01  9.27610000e-02  1.25930000e+04  1.37000000e-08  0.00000000e+00
1.87174340e-03  1.35002100e+01  9.27690000e-02  1.24690000e+04  1.46500000e-08  0.00000000e+00
1.89046080e-03  1.35004108e+01  9.27780000e-02  1.23470000e+04  1.56600000e-08  0.00000000e+00
1.90936540e-03  1.35005921e+01  9.27860000e-02  1.22260000e+04  1.67400000e-08  0.00000000e+00
1.92845900e-03  1.35007537e+01  9.27940000e-02  1.21060000e+04  1.78800000e-08  0.00000000e+00
1.94774360e-03  1.35008954e+01  9.28030000e-02  1.19870000e+04  1.91100000e-08  0.00000000e+00
1.96722100e-03  1.35010171e+01  9.28110000e-02  1.18700000e+04  2.04200000e-08  0.00000000e+00
1.98689320e-03  1.35011187e+01  9.28200000e-02  1.17530000e+04  2.18100000e-08  0.00000000e+00
2.00676210e-03  1.35011999e+01  9.28280000e-02  1.16380000e+04  2.33000000e-08  0.00000000e+00
2.02682970e-03  1.35012606e+01  9.28370000e-02  1.15240000e+04  2.48800000e-08  0.00000000e+00
2.04709800e-03  1.35013005e+01  9.28460000e-02  1.14110000e+04  2.65700000e-08  0.00000000e+00
2.06756900e-03  1.35013193e+01  9.28550000e-02  1.12990000e+04  2.83700000e-08  0.00000000e+00
2.08824460e-03  1.35013168e+01  9.28640000e-02  1.11880000e+04  3.02900000e-08  0.00000000e+00
2.10912710e-03  1.35012927e+01  9.28730000e-02  1.10780000e+04  3.23300000e-08  0.00000000e+00
2.13021830e-03  1.35012467e+01  9.28830000e-02  1.09700000e+04  3.45100000e-08  0.00000000e+00
2.15152050e-03  1.35011785e+01  9.28920000e-02  1.08620000e+04  3.68300000e-08  0.00000000e+00
2.17303570e-03  1.35010877e+01  9.29010000e-02  1.07560000e+04  3.93000000e-08  0.00000000e+00
2.19476600e-03  1.35009740e+01  9.29110000e-02  1.06500000e+04  4.19300000e-08  0.00000000e+00
2.21671360e-03  1.35008369e+01  9.29210000e-02  1.05460000e+04  4.47200000e-08  0.00000000e+00
2.23888080e-03  1.35006761e+01  9.29300000e-02  1.04430000e+04  4.77100000e-08  0.00000000e+00
2.26126950e-03  1.35004912e+01  9.29400000e-02  1.03400000e+04  5.08800000e-08  0.00000000e+00
2.28388220e-03  1.35002817e+01  9.29500000e-02  1.02390000e+04  5.42500000e-08  0.00000000e+00
2.30672100e-03  1.35000470e+01  9.29600000e-02  1.01390000e+04  5.78500000e-08  0.00000000e+00
2.32978820e-03  1.34997868e+01  9.29700000e-02  1.00400000e+04  6.16700000e-08  0.00000000e+00
2.35308610e-03  1.34995005e+01  9.29810000e-02  9.94130000e+03  6.57400000e-08  0.00000000e+00
2.37661690e-03  1.34991875e+01  9.29910000e-02  9.84390000e+03  7.00700000e-08  0.00000000e+00
2.40038310e-03  1.34988473e+01  9.30010000e-02  9.74760000e+03  7.46700000e-08  0.00000000e+00
2.42438690e-03  1.34984792e+01  9.30120000e-02  9.65210000e+03  7.95700000e-08  0.00000000e+00
2.44863070e-03  1.34980826e+01  9.30230000e-02  9.55770000e+03  8.47700000e-08  0.00000000e+00
2.47311700e-03  1.34976578e+01  9.30330000e-02  9.46410000e+03  9.03100000e-08  0.00000000e+00
2.49784810e-03  1.34972021e+01  9.30440000e-02  9.37150000e+03  9.61900000e-08  0.00000000e+00
2.52282660e-03  1.34967166e+01  9.30550000e-02  9.27990000e+03  1.02400000e-07  0.00000000e+00
2.54805480e-03  1.34961989e+01  9.30670000e-02  9.18910000e+03  1.09100000e-07  0.00000000e+00
2.57353540e-03  1.34956491e+01  9.30780000e-02  9.09920000e+03  1.16200000e-07  0.00000000e+00
2.59927070e-03  1.34950662e+01  9.30890000e-02  9.01020000e+03  1.23700000e-07  0.00000000e+00
2.62526340e-03  1.34944493e+01  9.31010000e-02  8.92210000e+03  1.31600000e-07  0.00000000e+00
2.65151600e-03  1.34937965e+01  9.31120000e-02  8.83480000e+03  1.40100000e-07  0.00000000e+00
2.67803110e-03  1.34931087e+01  9.31240000e-02  8.74850000e+03  1.49100000e-07  0.00000000e+00
2.70481140e-03  1.34923839e+01  9.31360000e-02  8.66300000e+03  1.58700000e-07  0.00000000e+00
2.73185950e-03  1.34916209e+01  9.31480000e-02  8.57830000e+03  1.68800000e-07  0.00000000e+00
2.75917810e-03  1.34908186e+01  9.31600000e-02  8.49450000e+03  1.79600000e-07  0.00000000e+00
2.78676980e-03  1.34899757e+01  9.31720000e-02  8.41150000e+03  1.91000000e-07  0.00000000e+00
2.81463750e-03  1.34890910e+01  9.31840000e-02  8.32930000e+03  2.03100000e-07  0.00000000e+00
2.84278380e-03  1.34881629e+01  9.31970000e-02  8.24790000e+03  2.16000000e-07  0.00000000e+00
2.87121160e-03  1.34871901e+01  9.32090000e-02  8.16730000e+03  2.29700000e-07  0.00000000e+00
2.89992370e-03  1.34861708e+01  9.32220000e-02  8.08760000e+03  2.44200000e-07  0.00000000e+00
2.92892290e-03  1.34851036e+01  9.32350000e-02  8.00860000e+03  2.59600000e-07  0.00000000e+00
2.95821210e-03  1.34839864e+01  9.32480000e-02  7.93040000e+03  2.75900000e-07  0.00000000e+00
2.98779420e-03  1.34828174e+01  9.32610000e-02  7.85300000e+03  2.93200000e-07  0.00000000e+00
3.01767220e-03  1.34815946e+01  9.32740000e-02  7.77640000e+03  3.11500000e-07  0.00000000e+00
3.04784880e-03  1.34803158e+01  9.32880000e-02  7.70050000e+03  3.31000000e-07  0.00000000e+00
3.07832730e-03  1.34789784e+01  9.33010000e-02  7.62530000e+03  3.51600000e-07  0.00000000e+00
3.10911050e-03  1.34775801e+01  9.33150000e-02  7.55090000e+03  3.73500000e-07  0.00000000e+00
3.14020160e-03  1.34761180e+01  9.33290000e-02  7.47730000e+03  3.96700000e-07  0.00000000e+00
3.17160360e-03  1.34745891e+01  9.33430000e-02  7.40440000e+03  4.21300000e-07  0.00000000e+00
3.20331960e-03  1.34729901e+01  9.33570000e-02  7.33220000e+03  4.47300000e-07  0.00000000e+00
3.23535280e-03  1.34713175e+01  9.33710000e-02  7.26070000e+03  4.74900000e-07  0.00000000e+00
3.26770630e-03  1.34695674e+01  9.33850000e-02  7.18990000e+03  5.04100000e-07  0.00000000e+00
3.30038330e-03  1.34677354e+01  9.34000000e-02  7.11980000e+03  5.35100000e-07  0.00000000e+00
3.33338710e-03  1.34658170e+01  9.34140000e-02  7.05040000e+03  5.67900000e-07  0.00000000e+00
3.36672100e-03  1.34638068e+01  9.34290000e-02  6.98170000e+03  6.02600000e-07  0.00000000e+00
3.40038810e-03  1.34616990e+01  9.34440000e-02  6.91370000e+03  6.39400000e-07  0.00000000e+00
3.43439200e-03  1.34594872e+01  9.34590000e-02  6.84640000e+03  6.78300000e-07  0.00000000e+00
3.46873590e-03  1.34571640e+01  9.34750000e-02  6.77970000e+03  7.19500000e-07  0.00000000e+00
3.50342320e-03  1.34547211e+01  9.34900000e-02  6.71370000e+03  7.63100000e-07  0.00000000e+00
3.53845740e-03  1.34521491e+01  9.35060000e-02  6.64830000e+03  8.09200000e-07  0.00000000e+00
3.57384190e-03  1.34494763e+01  9.35220000e-02  6.58360000e+03  8.58100000e-07  0.00000000e+00
3.60958030e-03  1.34466116e+01  9.35380000e-02  6.51950000e+03  9.09800000e-07  0.00000000e+00
3.64567610e-03  1.34435801e+01  9.35540000e-02  6.45610000e+03  9.64400000e-07  0.00000000e+00
3.68213280e-03  1.34403645e+01  9.35700000e-02  6.39330000e+03  1.02200000e-06  0.00000000e+00
3.71895410e-03  1.34369445e+01  9.35860000e-02  6.33110000e+03  1.08300000e-06  0.00000000e+00
3.75614360e-03  1.34332955e+01  9.36030000e-02  6.26950000e+03  1.14800000e-06  0.00000000e+00
3.79370500e-03  1.34293877e+01  9.36200000e-02  6.20860000e+03  1.21600000e-06  0.00000000e+00
3.83164200e-03  1.34251888e+01  9.36370000e-02  6.14820000e+03  1.28900000e-06  0.00000000e+00
3.86995840e-03  1.34206422e+01  9.36540000e-02  6.08840000e+03  1.36500000e-06  0.00000000e+00
3.90865800e-03  1.34156921e+01  9.36710000e-02  6.02930000e+03  1.44600000e-06  0.00000000e+00
3.94774450e-03  1.34102580e+01  9.36890000e-02  5.97070000e+03  1.53100000e-06  0.00000000e+00
3.98722190e-03  1.34042302e+01  9.37060000e-02  5.91270000e+03  1.62200000e-06  0.00000000e+00
4.02709410e-03  1.33974530e+01  9.37240000e-02  5.85530000e+03  1.71700000e-06  0.00000000e+00
4.06736500e-03  1.33896942e+01  9.37420000e-02  5.79840000e+03  1.81800000e-06  0.00000000e+00
4.10803860e-03  1.33805843e+01  9.37810000e-02  5.74340000e+03  1.92400000e-06  0.00000000e+00
4.14911890e-03  1.33694810e+01  9.38050000e-02  5.68800000e+03  2.03600000e-06  0.00000000e+00
4.19061010e-03  1.33551049e+01  9.38340000e-02  5.63340000e+03  2.15500000e-06  0.00000000e+00
4.23251620e-03  1.33342519e+01  9.38750000e-02  5.58010000e+03  2.28000000e-06  0.00000000e+00
4.27440010e-03  1.32940646e+01  9.39900000e-02  5.53210000e+03  2.41100000e-06  0.00000000e+00
4.27484130e-03  1.32933569e+01  9.39930000e-02  5.53170000e+03  2.41200000e-06  0.00000000e+00
4.28720010e-03  1.32660524e+01  9.41500000e-02  5.52500000e+03  2.45200000e-06  0.00000000e+00
4.29360010e-03  1.32383373e+01  9.44610000e-02  5.53500000e+03  2.47300000e-06  0.00000000e+00
4.29680010e-03  1.32107969e+01  9.50800000e-02  5.56710000e+03  2.48300000e-06  0.00000000e+00
4.29840010e-03  1.31833958e+01  9.63130000e-02  5.63720000e+03  2.48900000e-06  0.00000000e+00
4.29920010e-03  1.31561661e+01  9.87610000e-02  5.77940000e+03  2.49100000e-06  0.00000000e+00
4.29960010e-03  1.31294696e+01  1.03530000e-01  6.05780000e+03  2.49300000e-06  0.00000000e+00
4.30000010e-03  1.27598142e+01  1.55890000e-01  9.12080000e+03  2.49400000e-06  0.00000000e+00
4.30000020e-03  1.32748187e+01  1.55960000e-01  9.12480000e+03  2.49400000e-06  0.00000000e+00
4.30040010e-03  1.31312343e+01  2.08320000e-01  1.21870000e+04  2.49500000e-06  0.00000000e+00
4.30080010e-03  1.31561160e+01  2.13090000e-01  1.24650000e+04  2.49600000e-06  0.00000000e+00
4.30160010e-03  1.31832050e+01  2.15550000e-01  1.26070000e+04  2.49900000e-06  0.00000000e+00
4.30320010e-03  1.32104675e+01  2.16790000e-01  1.26750000e+04  2.50400000e-06  0.00000000e+00
4.30640010e-03  1.32376822e+01  2.17440000e-01  1.27030000e+04  2.51500000e-06  0.00000000e+00
4.31280010e-03  1.32647504e+01  2.17800000e-01  1.27050000e+04  2.53600000e-06  0.00000000e+00
4.31758960e-03  1.32770767e+01  2.17930000e-01  1.26990000e+04  2.55200000e-06  0.00000000e+00
4.32560010e-03  1.32915217e+01  2.18070000e-01  1.26830000e+04  2.57900000e-06  0.00000000e+00
4.36076550e-03  1.33240369e+01  2.18470000e-01  1.26040000e+04  2.69900000e-06  0.00000000e+00
4.40437310e-03  1.33434158e+01  2.18890000e-01  1.25030000e+04  2.85500000e-06  0.00000000e+00
4.44841680e-03  1.33553208e+01  2.19300000e-01  1.24030000e+04  3.01900000e-06  0.00000000e+00
4.49290090e-03  1.33636480e+01  2.19710000e-01  1.23030000e+04  3.19200000e-06  0.00000000e+00
4.53782990e-03  1.33698552e+01  2.20140000e-01  1.22050000e+04  3.37500000e-06  0.00000000e+00
4.58320820e-03  1.33746476e+01  2.20560000e-01  1.21070000e+04  3.56800000e-06  0.00000000e+00
4.62904020e-03  1.33784194e+01  2.20980000e-01  1.20100000e+04  3.77100000e-06  0.00000000e+00
4.67533060e-03  1.33814119e+01  2.21410000e-01  1.19150000e+04  3.98500000e-06  0.00000000e+00
4.72208380e-03  1.33837816e+01  2.21850000e-01  1.18200000e+04  4.21100000e-06  0.00000000e+00
4.76930460e-03  1.33856326e+01  2.22300000e-01  1.17270000e+04  4.44900000e-06  0.00000000e+00
4.81699760e-03  1.33870495e+01  2.22780000e-01  1.16360000e+04  4.70100000e-06  0.00000000e+00
4.86516750e-03  1.33880964e+01  2.23300000e-01  1.15470000e+04  4.96500000e-06  0.00000000e+00
4.91381920e-03  1.33888292e+01  2.23840000e-01  1.14610000e+04  5.24400000e-06  0.00000000e+00
4.96295730e-03  1.33892827e+01  2.24410000e-01  1.13760000e+04  5.53800000e-06  0.00000000e+00
5.01258680e-03  1.33894870e+01  2.25020000e-01  1.12940000e+04  5.84800000e-06  0.00000000e+00
5.06271270e-03  1.33894660e+01  2.25650000e-01  1.12140000e+04  6.17500000e-06  0.00000000e+00
5.11333970e-03  1.33892394e+01  2.26320000e-01  1.11350000e+04  6.51800000e-06  0.00000000e+00
5.16447310e-03  1.33888232e+01  2.27010000e-01  1.10590000e+04  6.88100000e-06  0.00000000e+00
5.21611780e-03  1.33882306e+01  2.27730000e-01  1.09840000e+04  7.26200000e-06  0.00000000e+00
5.26827890e-03  1.33874728e+01  2.28480000e-01  1.09110000e+04  7.66400000e-06  0.00000000e+00
5.32096160e-03  1.33865591e+01  2.29270000e-01  1.08400000e+04  8.08600000e-06  0.00000000e+00
5.37417120e-03  1.33854973e+01  2.30080000e-01  1.07710000e+04  8.53200000e-06  0.00000000e+00
5.42791290e-03  1.33842941e+01  2.30920000e-01  1.07030000e+04  9.00000000e-06  0.00000000e+00
5.48219190e-03  1.33829551e+01  2.31790000e-01  1.06370000e+04  9.49300000e-06  0.00000000e+00
5.53701380e-03  1.33814851e+01  2.32690000e-01  1.05730000e+04  1.00100000e-05  0.00000000e+00
5.59238390e-03  1.33798881e+01  2.33620000e-01  1.05100000e+04  1.05600000e-05  0.00000000e+00
5.64830770e-03  1.33781676e+01  2.34580000e-01  1.04490000e+04  1.11300000e-05  0.00000000e+00
5.70479070e-03  1.33763265e+01  2.35580000e-01  1.03890000e+04  1.17400000e-05  0.00000000e+00
5.76183850e-03  1.33743671e+01  2.36600000e-01  1.03310000e+04  1.23700000e-05  0.00000000e+00
5.81945690e-03  1.33722916e+01  2.37650000e-01  1.02740000e+04  1.30400000e-05  0.00000000e+00
5.87765140e-03  1.33701014e+01  2.38730000e-01  1.02190000e+04  1.37400000e-05  0.00000000e+00
5.93642780e-03  1.33677980e+01  2.39840000e-01  1.01650000e+04  1.44800000e-05  0.00000000e+00
5.99579210e-03  1.33653824e+01  2.40990000e-01  1.01120000e+04  1.52600000e-05  0.00000000e+00
6.05574990e-03  1.33628554e+01  2.42160000e-01  1.00610000e+04  1.60800000e-05  0.00000000e+00
