#  Tm:    Z = 69;   Atomic weight = 168.9342 g/mol ;    nominal density:   [INLINE] = 9.2940E+00 g/cm3
#         a(barns/atom) = (cm2/g)    2.80522E+02
#         E(eV) (cm2/g) = f2(e/atom)    2.49093E+05
#         19 edges. Edge energies (keV):
# K      5.93896E+01  L I    1.01157E+01  L II   9.61690E+00  L III  8.64800E+00
# M I    2.30680E+00  M II   2.08980E+00  M III  1.88450E+00  M IV   1.51460E+00
# M V    1.46770E+00  N I    4.71700E-01  N II   3.85900E-01  N III  3.36600E-01
# N IV   1.79600E-01  N V    1.79600E-01  N VI   5.30000E-03  N VII  5.30000E-03
# O I    5.32000E-02  O II   3.23000E-02  O III  3.23000E-02
#         Relativistic correction estimate frel (H82,3/5CL) = -1.2098E+00, -7.2240E-01 e/atom
#         Nuclear Thomson correction fNT = -1.5460E-02 e/atom
#    _________________________________________________________________________________________________________
#  Form Factors, Attenuation and Scattering Cross-sections
#  Z=69, E = 0.001 - 1000 keV
#                                                             Attenuation
#    E         f1            f2                     [INLINE] (coh+inc) Coefficient    K       wavelength
#    keV       e/atom       e/atom      cm2/g       cm2/g      cm2/g          cm2/g        nm
1.01000000e-03  1.24681922e+01  1.00020000e-01  2.46670000e+04  1.78100000e-10  0.00000000e+00
1.02010000e-03  1.24874858e+01  1.00020000e-01  2.44240000e+04  1.91900000e-10  0.00000000e+00
1.03030100e-03  1.24995264e+01  1.00030000e-01  2.41830000e+04  2.06700000e-10  0.00000000e+00
1.04060400e-03  1.25096551e+01  1.00030000e-01  2.39450000e+04  2.22700000e-10  0.00000000e+00
1.05101010e-03  1.25159671e+01  1.00040000e-01  2.37090000e+04  2.39900000e-10  0.00000000e+00
1.06152010e-03  1.25219346e+01  1.00040000e-01  2.34750000e+04  2.58300000e-10  0.00000000e+00
1.07213530e-03  1.25265018e+01  1.00050000e-01  2.32440000e+04  2.78200000e-10  0.00000000e+00
1.08285670e-03  1.25308699e+01  1.00050000e-01  2.30150000e+04  2.99500000e-10  0.00000000e+00
1.09368520e-03  1.25344720e+01  1.00060000e-01  2.27880000e+04  3.22400000e-10  0.00000000e+00
1.10462210e-03  1.25377525e+01  1.00060000e-01  2.25640000e+04  3.47000000e-10  0.00000000e+00
1.11566830e-03  1.25407643e+01  1.00070000e-01  2.23410000e+04  3.73500000e-10  0.00000000e+00
1.12682500e-03  1.25435482e+01  1.00070000e-01  2.21210000e+04  4.01900000e-10  0.00000000e+00
1.13809320e-03  1.25461367e+01  1.00080000e-01  2.19040000e+04  4.32500000e-10  0.00000000e+00
1.14947410e-03  1.25485555e+01  1.00080000e-01  2.16880000e+04  4.65300000e-10  0.00000000e+00
1.16096880e-03  1.25508259e+01  1.00090000e-01  2.14740000e+04  5.00600000e-10  0.00000000e+00
1.17257850e-03  1.25529650e+01  1.00090000e-01  2.12630000e+04  5.38400000e-10  0.00000000e+00
1.18430430e-03  1.25549874e+01  1.00100000e-01  2.10530000e+04  5.79000000e-10  0.00000000e+00
1.19614730e-03  1.25570301e+01  1.00100000e-01  2.08460000e+04  6.22700000e-10  0.00000000e+00
1.20810880e-03  1.25588504e+01  1.00110000e-01  2.06410000e+04  6.69500000e-10  0.00000000e+00
1.22018990e-03  1.25608839e+01  1.00110000e-01  2.04370000e+04  7.19800000e-10  0.00000000e+00
1.23239180e-03  1.25625170e+01  1.00120000e-01  2.02360000e+04  7.73700000e-10  0.00000000e+00
1.24471570e-03  1.25641358e+01  1.00120000e-01  2.00370000e+04  8.31600000e-10  0.00000000e+00
1.25716280e-03  1.25656348e+01  1.00130000e-01  1.98400000e+04  8.93700000e-10  0.00000000e+00
1.26973440e-03  1.25672728e+01  1.00140000e-01  1.96440000e+04  9.60300000e-10  0.00000000e+00
1.28243180e-03  1.25686451e+01  1.00140000e-01  1.94510000e+04  1.03200000e-09  0.00000000e+00
1.29525610e-03  1.25699677e+01  1.00150000e-01  1.92600000e+04  1.10800000e-09  0.00000000e+00
1.30820860e-03  1.25712436e+01  1.00150000e-01  1.90700000e+04  1.19100000e-09  0.00000000e+00
1.32129070e-03  1.25724760e+01  1.00160000e-01  1.88820000e+04  1.27900000e-09  0.00000000e+00
1.33450360e-03  1.25736672e+01  1.00170000e-01  1.86970000e+04  1.37300000e-09  0.00000000e+00
1.34784860e-03  1.25748196e+01  1.00170000e-01  1.85130000e+04  1.47400000e-09  0.00000000e+00
1.36132710e-03  1.25759353e+01  1.00180000e-01  1.83300000e+04  1.58300000e-09  0.00000000e+00
1.37494030e-03  1.25770162e+01  1.00180000e-01  1.81500000e+04  1.69900000e-09  0.00000000e+00
1.38868970e-03  1.25780640e+01  1.00190000e-01  1.79710000e+04  1.82400000e-09  0.00000000e+00
1.40257660e-03  1.25790802e+01  1.00200000e-01  1.77950000e+04  1.95700000e-09  0.00000000e+00
1.41660240e-03  1.25801225e+01  1.00200000e-01  1.76200000e+04  2.10000000e-09  0.00000000e+00
1.43076840e-03  1.25810788e+01  1.00210000e-01  1.74460000e+04  2.25300000e-09  0.00000000e+00
1.44507600e-03  1.25820074e+01  1.00220000e-01  1.72750000e+04  2.41700000e-09  0.00000000e+00
1.45952680e-03  1.25829093e+01  1.00220000e-01  1.71050000e+04  2.59300000e-09  0.00000000e+00
1.47412200e-03  1.25837855e+01  1.00230000e-01  1.69360000e+04  2.78100000e-09  0.00000000e+00
1.48886320e-03  1.25846369e+01  1.00240000e-01  1.67700000e+04  2.98200000e-09  0.00000000e+00
1.50375190e-03  1.25854642e+01  1.00240000e-01  1.66050000e+04  3.19700000e-09  0.00000000e+00
1.51878940e-03  1.25862683e+01  1.00250000e-01  1.64420000e+04  3.42800000e-09  0.00000000e+00
1.53397720e-03  1.25870497e+01  1.00260000e-01  1.62800000e+04  3.67400000e-09  0.00000000e+00
1.54931700e-03  1.25878092e+01  1.00260000e-01  1.61200000e+04  3.93800000e-09  0.00000000e+00
1.56481020e-03  1.25885473e+01  1.00270000e-01  1.59620000e+04  4.22100000e-09  0.00000000e+00
1.58045820e-03  1.25892644e+01  1.00280000e-01  1.58050000e+04  4.52200000e-09  0.00000000e+00
1.59626280e-03  1.25899611e+01  1.00290000e-01  1.56490000e+04  4.84500000e-09  0.00000000e+00
1.61222540e-03  1.25906379e+01  1.00290000e-01  1.54950000e+04  5.19100000e-09  0.00000000e+00
1.62834770e-03  1.25912950e+01  1.00300000e-01  1.53430000e+04  5.56000000e-09  0.00000000e+00
1.64463110e-03  1.25919329e+01  1.00310000e-01  1.51920000e+04  5.95500000e-09  0.00000000e+00
1.66107740e-03  1.25925519e+01  1.00320000e-01  1.50430000e+04  6.37600000e-09  0.00000000e+00
1.67768820e-03  1.25931522e+01  1.00320000e-01  1.48950000e+04  6.82700000e-09  0.00000000e+00
1.69446500e-03  1.25937342e+01  1.00330000e-01  1.47490000e+04  7.30900000e-09  0.00000000e+00
1.71140970e-03  1.25942981e+01  1.00340000e-01  1.46040000e+04  7.82400000e-09  0.00000000e+00
1.72852380e-03  1.25948440e+01  1.00350000e-01  1.44610000e+04  8.37400000e-09  0.00000000e+00
1.74580900e-03  1.25953722e+01  1.00350000e-01  1.43190000e+04  8.96200000e-09  0.00000000e+00
1.76326710e-03  1.25958828e+01  1.00360000e-01  1.41780000e+04  9.58900000e-09  0.00000000e+00
1.78089970e-03  1.25963760e+01  1.00370000e-01  1.40390000e+04  1.02600000e-08  0.00000000e+00
1.79870870e-03  1.25968519e+01  1.00380000e-01  1.39010000e+04  1.09700000e-08  0.00000000e+00
1.81669580e-03  1.25973106e+01  1.00390000e-01  1.37640000e+04  1.17400000e-08  0.00000000e+00
1.83486270e-03  1.25977521e+01  1.00390000e-01  1.36290000e+04  1.25500000e-08  0.00000000e+00
1.85321130e-03  1.25981765e+01  1.00400000e-01  1.34950000e+04  1.34300000e-08  0.00000000e+00
1.87174340e-03  1.25985839e+01  1.00410000e-01  1.33630000e+04  1.43500000e-08  0.00000000e+00
1.89046080e-03  1.25989743e+01  1.00420000e-01  1.32320000e+04  1.53500000e-08  0.00000000e+00
1.90936540e-03  1.25993477e+01  1.00430000e-01  1.31020000e+04  1.64000000e-08  0.00000000e+00
1.92845900e-03  1.25997041e+01  1.00440000e-01  1.29730000e+04  1.75300000e-08  0.00000000e+00
1.94774360e-03  1.26000434e+01  1.00450000e-01  1.28460000e+04  1.87400000e-08  0.00000000e+00
1.96722100e-03  1.26003657e+01  1.00460000e-01  1.27200000e+04  2.00200000e-08  0.00000000e+00
1.98689320e-03  1.26006708e+01  1.00460000e-01  1.25950000e+04  2.13900000e-08  0.00000000e+00
2.00676210e-03  1.26009587e+01  1.00470000e-01  1.24710000e+04  2.28500000e-08  0.00000000e+00
2.02682970e-03  1.26012294e+01  1.00480000e-01  1.23490000e+04  2.44000000e-08  0.00000000e+00
2.04709800e-03  1.26014827e+01  1.00490000e-01  1.22280000e+04  2.60600000e-08  0.00000000e+00
2.06756900e-03  1.26017185e+01  1.00500000e-01  1.21080000e+04  2.78300000e-08  0.00000000e+00
2.08824460e-03  1.26019367e+01  1.00510000e-01  1.19890000e+04  2.97200000e-08  0.00000000e+00
2.10912710e-03  1.26021371e+01  1.00520000e-01  1.18720000e+04  3.17200000e-08  0.00000000e+00
2.13021830e-03  1.26023196e+01  1.00530000e-01  1.17550000e+04  3.38600000e-08  0.00000000e+00
2.15152050e-03  1.26024841e+01  1.00540000e-01  1.16400000e+04  3.61400000e-08  0.00000000e+00
2.17303570e-03  1.26026303e+01  1.00550000e-01  1.15260000e+04  3.85700000e-08  0.00000000e+00
2.19476600e-03  1.26027581e+01  1.00560000e-01  1.14130000e+04  4.11500000e-08  0.00000000e+00
2.21671360e-03  1.26028672e+01  1.00570000e-01  1.13010000e+04  4.39000000e-08  0.00000000e+00
2.23888080e-03  1.26029575e+01  1.00580000e-01  1.11900000e+04  4.68300000e-08  0.00000000e+00
2.26126950e-03  1.26030287e+01  1.00590000e-01  1.10810000e+04  4.99500000e-08  0.00000000e+00
2.28388220e-03  1.26030805e+01  1.00600000e-01  1.09720000e+04  5.32700000e-08  0.00000000e+00
2.30672100e-03  1.26031127e+01  1.00610000e-01  1.08650000e+04  5.68100000e-08  0.00000000e+00
2.32978820e-03  1.26031251e+01  1.00620000e-01  1.07580000e+04  6.05700000e-08  0.00000000e+00
2.35308610e-03  1.26031173e+01  1.00630000e-01  1.06530000e+04  6.45700000e-08  0.00000000e+00
2.37661690e-03  1.26030890e+01  1.00640000e-01  1.05490000e+04  6.88300000e-08  0.00000000e+00
2.40038310e-03  1.26030399e+01  1.00660000e-01  1.04450000e+04  7.33600000e-08  0.00000000e+00
2.42438690e-03  1.26029697e+01  1.00670000e-01  1.03430000e+04  7.81700000e-08  0.00000000e+00
2.44863070e-03  1.26028781e+01  1.00680000e-01  1.02420000e+04  8.32900000e-08  0.00000000e+00
2.47311700e-03  1.26027646e+01  1.00690000e-01  1.01410000e+04  8.87400000e-08  0.00000000e+00
2.49784810e-03  1.26026289e+01  1.00700000e-01  1.00420000e+04  9.45300000e-08  0.00000000e+00
2.52282660e-03  1.26024705e+01  1.00710000e-01  9.94380000e+03  1.00700000e-07  0.00000000e+00
2.54805480e-03  1.26022892e+01  1.00720000e-01  9.84650000e+03  1.07200000e-07  0.00000000e+00
2.57353540e-03  1.26020843e+01  1.00740000e-01  9.75020000e+03  1.14200000e-07  0.00000000e+00
2.59927070e-03  1.26018556e+01  1.00750000e-01  9.65480000e+03  1.21600000e-07  0.00000000e+00
2.62526340e-03  1.26016025e+01  1.00760000e-01  9.56030000e+03  1.29400000e-07  0.00000000e+00
2.65151600e-03  1.26013245e+01  1.00770000e-01  9.46680000e+03  1.37800000e-07  0.00000000e+00
2.67803110e-03  1.26010211e+01  1.00780000e-01  9.37420000e+03  1.46600000e-07  0.00000000e+00
2.70481140e-03  1.26006918e+01  1.00800000e-01  9.28260000e+03  1.56000000e-07  0.00000000e+00
2.73185950e-03  1.26003360e+01  1.00810000e-01  9.19180000e+03  1.66000000e-07  0.00000000e+00
2.75917810e-03  1.25999533e+01  1.00820000e-01  9.10190000e+03  1.76600000e-07  0.00000000e+00
2.78676980e-03  1.25995428e+01  1.00830000e-01  9.01300000e+03  1.87900000e-07  0.00000000e+00
2.81463750e-03  1.25991042e+01  1.00850000e-01  8.92490000e+03  1.99800000e-07  0.00000000e+00
2.84278380e-03  1.25986366e+01  1.00860000e-01  8.83760000e+03  2.12500000e-07  0.00000000e+00
2.87121160e-03  1.25981395e+01  1.00870000e-01  8.75130000e+03  2.26000000e-07  0.00000000e+00
2.89992370e-03  1.25976121e+01  1.00890000e-01  8.66580000e+03  2.40300000e-07  0.00000000e+00
2.92892290e-03  1.25970537e+01  1.00900000e-01  8.58110000e+03  2.55500000e-07  0.00000000e+00
2.95821210e-03  1.25964635e+01  1.00910000e-01  8.49730000e+03  2.71500000e-07  0.00000000e+00
2.98779420e-03  1.25958417e+01  1.00930000e-01  8.41430000e+03  2.88600000e-07  0.00000000e+00
3.01767220e-03  1.25951856e+01  1.00940000e-01  8.33220000e+03  3.06700000e-07  0.00000000e+00
3.04784880e-03  1.25944960e+01  1.00960000e-01  8.25080000e+03  3.25900000e-07  0.00000000e+00
3.07832730e-03  1.25937705e+01  1.00970000e-01  8.17030000e+03  3.46200000e-07  0.00000000e+00
3.10911050e-03  1.25930089e+01  1.00980000e-01  8.09050000e+03  3.67800000e-07  0.00000000e+00
3.14020160e-03  1.25922102e+01  1.01000000e-01  8.01160000e+03  3.90700000e-07  0.00000000e+00
3.17160360e-03  1.25913726e+01  1.01010000e-01  7.93340000e+03  4.14900000e-07  0.00000000e+00
3.20331960e-03  1.25904966e+01  1.01030000e-01  7.85600000e+03  4.40600000e-07  0.00000000e+00
3.23535280e-03  1.25895803e+01  1.01040000e-01  7.77940000e+03  4.67800000e-07  0.00000000e+00
3.26770630e-03  1.25886224e+01  1.01060000e-01  7.70350000e+03  4.96600000e-07  0.00000000e+00
3.30038330e-03  1.25876218e+01  1.01070000e-01  7.62840000e+03  5.27200000e-07  0.00000000e+00
3.33338710e-03  1.25865771e+01  1.01090000e-01  7.55400000e+03  5.59500000e-07  0.00000000e+00
3.36672100e-03  1.25854870e+01  1.01100000e-01  7.48030000e+03  5.93800000e-07  0.00000000e+00
3.40038810e-03  1.25843499e+01  1.01120000e-01  7.40740000e+03  6.30100000e-07  0.00000000e+00
3.43439200e-03  1.25831645e+01  1.01140000e-01  7.33520000e+03  6.68500000e-07  0.00000000e+00
3.46873590e-03  1.25819290e+01  1.01150000e-01  7.26380000e+03  7.09100000e-07  0.00000000e+00
3.50342320e-03  1.25806418e+01  1.01170000e-01  7.19300000e+03  7.52200000e-07  0.00000000e+00
3.53845740e-03  1.25793010e+01  1.01180000e-01  7.12290000e+03  7.97800000e-07  0.00000000e+00
3.57384190e-03  1.25779048e+01  1.01200000e-01  7.05360000e+03  8.46000000e-07  0.00000000e+00
3.60958030e-03  1.25764511e+01  1.01220000e-01  6.98490000e+03  8.97000000e-07  0.00000000e+00
3.64567610e-03  1.25749778e+01  1.01230000e-01  6.91690000e+03  9.51000000e-07  0.00000000e+00
3.68213280e-03  1.25734021e+01  1.01250000e-01  6.84960000e+03  1.00800000e-06  0.00000000e+00
3.71895410e-03  1.25717619e+01  1.01270000e-01  6.78290000e+03  1.06800000e-06  0.00000000e+00
3.75614360e-03  1.25700546e+01  1.01290000e-01  6.71690000e+03  1.13200000e-06  0.00000000e+00
3.79370500e-03  1.25682774e+01  1.01300000e-01  6.65150000e+03  1.20000000e-06  0.00000000e+00
3.83164200e-03  1.25664274e+01  1.01320000e-01  6.58680000e+03  1.27100000e-06  0.00000000e+00
3.86995840e-03  1.25645011e+01  1.01340000e-01  6.52280000e+03  1.34700000e-06  0.00000000e+00
3.90865800e-03  1.25624950e+01  1.01360000e-01  6.45940000e+03  1.42700000e-06  0.00000000e+00
3.94774450e-03  1.25604053e+01  1.01380000e-01  6.39660000e+03  1.51100000e-06  0.00000000e+00
3.98722190e-03  1.25582278e+01  1.01390000e-01  6.33440000e+03  1.60000000e-06  0.00000000e+00
4.02709410e-03  1.25559579e+01  1.01410000e-01  6.27280000e+03  1.69400000e-06  0.00000000e+00
4.06736500e-03  1.25535905e+01  1.01430000e-01  6.21190000e+03  1.79400000e-06  0.00000000e+00
4.10803860e-03  1.25511203e+01  1.01450000e-01  6.15150000e+03  1.89900000e-06  0.00000000e+00
4.14911890e-03  1.25485409e+01  1.01470000e-01  6.09180000e+03  2.01000000e-06  0.00000000e+00
4.19061010e-03  1.25458458e+01  1.01490000e-01  6.03260000e+03  2.12700000e-06  0.00000000e+00
4.23251620e-03  1.25430272e+01  1.01510000e-01  5.97410000e+03  2.25100000e-06  0.00000000e+00
4.27484130e-03  1.25400766e+01  1.01530000e-01  5.91610000e+03  2.38200000e-06  0.00000000e+00
4.31758960e-03  1.25369846e+01  1.01550000e-01  5.85870000e+03  2.52000000e-06  0.00000000e+00
4.36076550e-03  1.25337400e+01  1.01570000e-01  5.80180000e+03  2.66600000e-06  0.00000000e+00
4.40437310e-03  1.25303306e+01  1.01590000e-01  5.74550000e+03  2.82000000e-06  0.00000000e+00
4.44841680e-03  1.25267417e+01  1.01610000e-01  5.68980000e+03  2.98200000e-06  0.00000000e+00
4.49290090e-03  1.25229566e+01  1.01630000e-01  5.63470000e+03  3.15300000e-06  0.00000000e+00
4.53782990e-03  1.25189556e+01  1.01650000e-01  5.58000000e+03  3.33400000e-06  0.00000000e+00
4.58320820e-03  1.25147152e+01  1.01680000e-01  5.52590000e+03  3.52500000e-06  0.00000000e+00
4.62904020e-03  1.25102071e+01  1.01700000e-01  5.47240000e+03  3.72600000e-06  0.00000000e+00
4.67533060e-03  1.25053968e+01  1.01720000e-01  5.41940000e+03  3.93800000e-06  0.00000000e+00
4.72208380e-03  1.25002418e+01  1.01740000e-01  5.36690000e+03  4.16100000e-06  0.00000000e+00
4.76930460e-03  1.24946880e+01  1.01760000e-01  5.31490000e+03  4.39700000e-06  0.00000000e+00
4.81699760e-03  1.24886660e+01  1.01790000e-01  5.26350000e+03  4.64600000e-06  0.00000000e+00
4.86516750e-03  1.24820905e+01  1.01810000e-01  5.21250000e+03  4.90800000e-06  0.00000000e+00
4.91381920e-03  1.24748231e+01  1.01830000e-01  5.16210000e+03  5.18400000e-06  0.00000000e+00
4.96295730e-03  1.24666918e+01  1.01860000e-01  5.11220000e+03  5.47500000e-06  0.00000000e+00
5.01258680e-03  1.24574312e+01  1.01880000e-01  5.06270000e+03  5.78200000e-06  0.00000000e+00
5.06271270e-03  1.24466199e+01  1.01900000e-01  5.01380000e+03  6.10500000e-06  0.00000000e+00
5.11333970e-03  1.24335259e+01  1.01950000e-01  4.96650000e+03  6.44600000e-06  0.00000000e+00
5.16447310e-03  1.24166946e+01  1.01980000e-01  4.91890000e+03  6.80400000e-06  0.00000000e+00
5.21611780e-03  1.23924983e+01  1.02030000e-01  4.87240000e+03  7.18200000e-06  0.00000000e+00
5.26827890e-03  1.23457629e+01  1.02140000e-01  4.82950000e+03  7.58000000e-06  0.00000000e+00
5.27439980e-03  1.23357082e+01  1.02180000e-01  4.82570000e+03  7.62800000e-06  0.00000000e+00
5.28719980e-03  1.23035408e+01  1.02360000e-01  4.82260000e+03  7.72800000e-06  0.00000000e+00
5.29359980e-03  1.22717023e+01  1.02720000e-01  4.83360000e+03  7.77900000e-06  0.00000000e+00
5.29679980e-03  1.22400540e+01  1.03430000e-01  4.86420000e+03  7.80400000e-06  0.00000000e+00
5.29839980e-03  1.22085583e+01  1.04850000e-01  4.92930000e+03  7.81700000e-06  0.00000000e+00
5.29919980e-03  1.21763371e+01  1.07670000e-01  5.06090000e+03  7.82400000e-06  0.00000000e+00
5.29959980e-03  1.21465623e+01  1.13150000e-01  5.31810000e+03  7.82700000e-06  0.00000000e+00
5.29999970e-03  1.18680451e+01  1.73340000e-01  8.14680000e+03  7.83000000e-06  0.00000000e+00
5.30000000e-03  1.21686706e+01  1.73440000e-01  8.15130000e+03  7.83000000e-06  0.00000000e+00
5.30039980e-03  1.21485948e+01  2.33630000e-01  1.09800000e+04  7.83300000e-06  0.00000000e+00
5.30079980e-03  1.21781230e+01  2.39120000e-01  1.12360000e+04  7.83600000e-06  0.00000000e+00
5.30159980e-03  1.22083568e+01  2.41940000e-01  1.13670000e+04  7.84300000e-06  0.00000000e+00
5.30319980e-03  1.22397109e+01  2.43360000e-01  1.14310000e+04  7.85600000e-06  0.00000000e+00
5.30639980e-03  1.22710162e+01  2.44100000e-01  1.14580000e+04  7.88100000e-06  0.00000000e+00
5.31279980e-03  1.23021638e+01  2.44500000e-01  1.14630000e+04  7.93300000e-06  0.00000000e+00
5.32096160e-03  1.23241456e+01  2.44690000e-01  1.14550000e+04  7.99900000e-06  0.00000000e+00
5.32559980e-03  1.23329865e+01  2.44760000e-01  1.14480000e+04  8.03600000e-06  0.00000000e+00
5.35119980e-03  1.23631665e+01  2.45030000e-01  1.14060000e+04  8.24700000e-06  0.00000000e+00
5.37417120e-03  1.23788413e+01  2.45220000e-01  1.13660000e+04  8.44000000e-06  0.00000000e+00
5.42791290e-03  1.24008901e+01  2.45630000e-01  1.12720000e+04  8.90400000e-06  0.00000000e+00
5.48219190e-03  1.24142168e+01  2.46040000e-01  1.11790000e+04  9.39300000e-06  0.00000000e+00
5.53701380e-03  1.24233768e+01  2.46470000e-01  1.10880000e+04  9.90700000e-06  0.00000000e+00
5.59238390e-03  1.24300665e+01  2.46880000e-01  1.09960000e+04  1.04500000e-05  0.00000000e+00
5.64830770e-03  1.24351042e+01  2.47300000e-01  1.09060000e+04  1.10200000e-05  0.00000000e+00
5.70479070e-03  1.24389464e+01  2.47740000e-01  1.08170000e+04  1.16200000e-05  0.00000000e+00
5.76183850e-03  1.24418718e+01  2.48180000e-01  1.07290000e+04  1.22500000e-05  0.00000000e+00
5.81945690e-03  1.24440553e+01  2.48640000e-01  1.06430000e+04  1.29100000e-05  0.00000000e+00
5.87765140e-03  1.24456250e+01  2.49110000e-01  1.05570000e+04  1.36100000e-05  0.00000000e+00
5.93642780e-03  1.24466744e+01  2.49630000e-01  1.04750000e+04  1.43400000e-05  0.00000000e+00
5.99579210e-03  1.24472839e+01  2.50200000e-01  1.03940000e+04  1.51100000e-05  0.00000000e+00
