#  Lu:    Z = 71;   Atomic weight = 174.9670 g/mol ;    nominal density:   [INLINE] = 9.8110E+00 g/cm3
#         a(barns/atom) = (cm2/g)    2.90540E+02
#         E(eV) (cm2/g) = f2(e/atom)    2.40504E+05
#         19 edges. Edge energies (keV):
# K      6.33138E+01  L I    1.08704E+01  L II   1.03486E+01  L III  9.24410E+00
# M I    2.49120E+00  M II   2.26350E+00  M III  2.02360E+00  M IV   1.63940E+00
# M V    1.58850E+00  N I    5.06200E-01  N II   4.10100E-01  N III  3.59300E-01
# N IV   2.04800E-01  N V    1.95000E-01  N VI   6.90000E-03  N VII  6.90000E-03
# O I    5.68000E-02  O II   2.80000E-02  O III  2.80000E-02
#         Relativistic correction estimate frel (H82,3/5CL) = -1.3030E+00, -7.7580E-01 e/atom
#         Nuclear Thomson correction fNT = -1.5805E-02 e/atom
#    _________________________________________________________________________________________________________
#  Form Factors, Attenuation and Scattering Cross-sections
#  Z=71, E = 0.001 - 1000 keV
#                                                             Attenuation
#    E         f1            f2                     [INLINE] (coh+inc) Coefficient    K       wavelength
#    keV       e/atom       e/atom      cm2/g       cm2/g      cm2/g          cm2/g        nm
1.01000000e-03  1.30836057e+01  7.11230000e-02  1.69360000e+04  1.70500000e-10  0.00000000e+00
1.02010000e-03  1.30979615e+01  7.11250000e-02  1.67690000e+04  1.83700000e-10  0.00000000e+00
1.03030100e-03  1.31062860e+01  7.11280000e-02  1.66030000e+04  1.97900000e-10  0.00000000e+00
1.04060400e-03  1.31133041e+01  7.11310000e-02  1.64400000e+04  2.13200000e-10  0.00000000e+00
1.05101010e-03  1.31176422e+01  7.11340000e-02  1.62780000e+04  2.29700000e-10  0.00000000e+00
1.06152010e-03  1.31215929e+01  7.11360000e-02  1.61170000e+04  2.47300000e-10  0.00000000e+00
1.07213530e-03  1.31251230e+01  7.11390000e-02  1.59580000e+04  2.66400000e-10  0.00000000e+00
1.08285670e-03  1.31282232e+01  7.11420000e-02  1.58010000e+04  2.86800000e-10  0.00000000e+00
1.09368520e-03  1.31306668e+01  7.11450000e-02  1.56450000e+04  3.08800000e-10  0.00000000e+00
1.10462210e-03  1.31328981e+01  7.11480000e-02  1.54910000e+04  3.32400000e-10  0.00000000e+00
1.11566830e-03  1.31349506e+01  7.11510000e-02  1.53380000e+04  3.57700000e-10  0.00000000e+00
1.12682500e-03  1.31368501e+01  7.11540000e-02  1.51870000e+04  3.85000000e-10  0.00000000e+00
1.13809320e-03  1.31386174e+01  7.11570000e-02  1.50370000e+04  4.14300000e-10  0.00000000e+00
1.14947410e-03  1.31402694e+01  7.11600000e-02  1.48890000e+04  4.45800000e-10  0.00000000e+00
1.16096880e-03  1.31418197e+01  7.11630000e-02  1.47420000e+04  4.79600000e-10  0.00000000e+00
1.17257850e-03  1.31432798e+01  7.11660000e-02  1.45970000e+04  5.15900000e-10  0.00000000e+00
1.18430430e-03  1.31446592e+01  7.11690000e-02  1.44530000e+04  5.54800000e-10  0.00000000e+00
1.19614730e-03  1.31459659e+01  7.11720000e-02  1.43100000e+04  5.96700000e-10  0.00000000e+00
1.20810880e-03  1.31472067e+01  7.11750000e-02  1.41690000e+04  6.41600000e-10  0.00000000e+00
1.22018990e-03  1.31485082e+01  7.11790000e-02  1.40300000e+04  6.89800000e-10  0.00000000e+00
1.23239180e-03  1.31497671e+01  7.11820000e-02  1.38910000e+04  7.41600000e-10  0.00000000e+00
1.24471570e-03  1.31509899e+01  7.11850000e-02  1.37540000e+04  7.97100000e-10  0.00000000e+00
1.25716280e-03  1.31519949e+01  7.11880000e-02  1.36190000e+04  8.56700000e-10  0.00000000e+00
1.26973440e-03  1.31530113e+01  7.11920000e-02  1.34850000e+04  9.20600000e-10  0.00000000e+00
1.28243180e-03  1.31539354e+01  7.11950000e-02  1.33520000e+04  9.89200000e-10  0.00000000e+00
1.29525610e-03  1.31550101e+01  7.11990000e-02  1.32200000e+04  1.06300000e-09  0.00000000e+00
1.30820860e-03  1.31558526e+01  7.12020000e-02  1.30900000e+04  1.14200000e-09  0.00000000e+00
1.32129070e-03  1.31566641e+01  7.12050000e-02  1.29610000e+04  1.22600000e-09  0.00000000e+00
1.33450360e-03  1.31574464e+01  7.12090000e-02  1.28330000e+04  1.31700000e-09  0.00000000e+00
1.34784860e-03  1.31582010e+01  7.12130000e-02  1.27070000e+04  1.41400000e-09  0.00000000e+00
1.36132710e-03  1.31589293e+01  7.12160000e-02  1.25820000e+04  1.51800000e-09  0.00000000e+00
1.37494030e-03  1.31596325e+01  7.12200000e-02  1.24580000e+04  1.63000000e-09  0.00000000e+00
1.38868970e-03  1.31603116e+01  7.12230000e-02  1.23350000e+04  1.74900000e-09  0.00000000e+00
1.40257660e-03  1.31609678e+01  7.12270000e-02  1.22140000e+04  1.87800000e-09  0.00000000e+00
1.41660240e-03  1.31616019e+01  7.12310000e-02  1.20930000e+04  2.01500000e-09  0.00000000e+00
1.43076840e-03  1.31622148e+01  7.12350000e-02  1.19740000e+04  2.16200000e-09  0.00000000e+00
1.44507600e-03  1.31628072e+01  7.12380000e-02  1.18560000e+04  2.31900000e-09  0.00000000e+00
1.45952680e-03  1.31634377e+01  7.12420000e-02  1.17390000e+04  2.48800000e-09  0.00000000e+00
1.47412200e-03  1.31639903e+01  7.12460000e-02  1.16240000e+04  2.66900000e-09  0.00000000e+00
1.48886320e-03  1.31645243e+01  7.12500000e-02  1.15090000e+04  2.86200000e-09  0.00000000e+00
1.50375190e-03  1.31650402e+01  7.12540000e-02  1.13960000e+04  3.06900000e-09  0.00000000e+00
1.51878940e-03  1.31655386e+01  7.12580000e-02  1.12840000e+04  3.29100000e-09  0.00000000e+00
1.53397720e-03  1.31660197e+01  7.12620000e-02  1.11730000e+04  3.52800000e-09  0.00000000e+00
1.54931700e-03  1.31664841e+01  7.12660000e-02  1.10630000e+04  3.78100000e-09  0.00000000e+00
1.56481020e-03  1.31669320e+01  7.12700000e-02  1.09540000e+04  4.05300000e-09  0.00000000e+00
1.58045820e-03  1.31673637e+01  7.12750000e-02  1.08460000e+04  4.34300000e-09  0.00000000e+00
1.59626280e-03  1.31677797e+01  7.12790000e-02  1.07390000e+04  4.65300000e-09  0.00000000e+00
1.61222540e-03  1.31681801e+01  7.12830000e-02  1.06340000e+04  4.98500000e-09  0.00000000e+00
1.62834770e-03  1.31685651e+01  7.12870000e-02  1.05290000e+04  5.34000000e-09  0.00000000e+00
1.64463110e-03  1.31689350e+01  7.12920000e-02  1.04250000e+04  5.72000000e-09  0.00000000e+00
1.66107740e-03  1.31692900e+01  7.12960000e-02  1.03230000e+04  6.12600000e-09  0.00000000e+00
1.67768820e-03  1.31696302e+01  7.13010000e-02  1.02210000e+04  6.55900000e-09  0.00000000e+00
1.69446500e-03  1.31699557e+01  7.13050000e-02  1.01210000e+04  7.02300000e-09  0.00000000e+00
1.71140970e-03  1.31702668e+01  7.13100000e-02  1.00210000e+04  7.51800000e-09  0.00000000e+00
1.72852380e-03  1.31705634e+01  7.13140000e-02  9.92250000e+03  8.04700000e-09  0.00000000e+00
1.74580900e-03  1.31708457e+01  7.13190000e-02  9.82490000e+03  8.61300000e-09  0.00000000e+00
1.76326710e-03  1.31711137e+01  7.13230000e-02  9.72830000e+03  9.21700000e-09  0.00000000e+00
1.78089970e-03  1.31713676e+01  7.13280000e-02  9.63260000e+03  9.86200000e-09  0.00000000e+00
1.79870870e-03  1.31716073e+01  7.13330000e-02  9.53790000e+03  1.05500000e-08  0.00000000e+00
1.81669580e-03  1.31718328e+01  7.13380000e-02  9.44410000e+03  1.12900000e-08  0.00000000e+00
1.83486270e-03  1.31720442e+01  7.13430000e-02  9.35120000e+03  1.20700000e-08  0.00000000e+00
1.85321130e-03  1.31722416e+01  7.13470000e-02  9.25930000e+03  1.29100000e-08  0.00000000e+00
1.87174340e-03  1.31724247e+01  7.13520000e-02  9.16820000e+03  1.38000000e-08  0.00000000e+00
1.89046080e-03  1.31725937e+01  7.13570000e-02  9.07810000e+03  1.47600000e-08  0.00000000e+00
1.90936540e-03  1.31727485e+01  7.13630000e-02  8.98880000e+03  1.57800000e-08  0.00000000e+00
1.92845900e-03  1.31728891e+01  7.13680000e-02  8.90050000e+03  1.68600000e-08  0.00000000e+00
1.94774360e-03  1.31730153e+01  7.13730000e-02  8.81300000e+03  1.80200000e-08  0.00000000e+00
1.96722100e-03  1.31731271e+01  7.13780000e-02  8.72640000e+03  1.92600000e-08  0.00000000e+00
1.98689320e-03  1.31732245e+01  7.13830000e-02  8.64060000e+03  2.05800000e-08  0.00000000e+00
2.00676210e-03  1.31733073e+01  7.13890000e-02  8.55570000e+03  2.19800000e-08  0.00000000e+00
2.02682970e-03  1.31733753e+01  7.13940000e-02  8.47160000e+03  2.34800000e-08  0.00000000e+00
2.04709800e-03  1.31734286e+01  7.13990000e-02  8.38840000e+03  2.50800000e-08  0.00000000e+00
2.06756900e-03  1.31734670e+01  7.14050000e-02  8.30600000e+03  2.67900000e-08  0.00000000e+00
2.08824460e-03  1.31734903e+01  7.14100000e-02  8.22440000e+03  2.86000000e-08  0.00000000e+00
2.10912710e-03  1.31734983e+01  7.14160000e-02  8.14360000e+03  3.05400000e-08  0.00000000e+00
2.13021830e-03  1.31734910e+01  7.14220000e-02  8.06360000e+03  3.26000000e-08  0.00000000e+00
2.15152050e-03  1.31734681e+01  7.14270000e-02  7.98440000e+03  3.48000000e-08  0.00000000e+00
2.17303570e-03  1.31734295e+01  7.14330000e-02  7.90600000e+03  3.71400000e-08  0.00000000e+00
2.19476600e-03  1.31733750e+01  7.14390000e-02  7.82840000e+03  3.96300000e-08  0.00000000e+00
2.21671360e-03  1.31733044e+01  7.14450000e-02  7.75150000e+03  4.22800000e-08  0.00000000e+00
2.23888080e-03  1.31732175e+01  7.14510000e-02  7.67540000e+03  4.51100000e-08  0.00000000e+00
2.26126950e-03  1.31731140e+01  7.14570000e-02  7.60000000e+03  4.81200000e-08  0.00000000e+00
2.28388220e-03  1.31729937e+01  7.14630000e-02  7.52540000e+03  5.13200000e-08  0.00000000e+00
2.30672100e-03  1.31728564e+01  7.14690000e-02  7.45150000e+03  5.47300000e-08  0.00000000e+00
2.32978820e-03  1.31727019e+01  7.14750000e-02  7.37840000e+03  5.83600000e-08  0.00000000e+00
2.35308610e-03  1.31725298e+01  7.14820000e-02  7.30600000e+03  6.22200000e-08  0.00000000e+00
2.37661690e-03  1.31723399e+01  7.14880000e-02  7.23430000e+03  6.63200000e-08  0.00000000e+00
2.40038310e-03  1.31721319e+01  7.14940000e-02  7.16330000e+03  7.06900000e-08  0.00000000e+00
2.42438690e-03  1.31719055e+01  7.15010000e-02  7.09300000e+03  7.53400000e-08  0.00000000e+00
2.44863070e-03  1.31716605e+01  7.15070000e-02  7.02340000e+03  8.02900000e-08  0.00000000e+00
2.47311700e-03  1.31713964e+01  7.15140000e-02  6.95450000e+03  8.55400000e-08  0.00000000e+00
2.49784810e-03  1.31711130e+01  7.15210000e-02  6.88630000e+03  9.11300000e-08  0.00000000e+00
2.52282660e-03  1.31708146e+01  7.15270000e-02  6.81880000e+03  9.70800000e-08  0.00000000e+00
2.54805480e-03  1.31704915e+01  7.15340000e-02  6.75190000e+03  1.03400000e-07  0.00000000e+00
2.57353540e-03  1.31701481e+01  7.15410000e-02  6.68570000e+03  1.10100000e-07  0.00000000e+00
2.59927070e-03  1.31697839e+01  7.15480000e-02  6.62020000e+03  1.17200000e-07  0.00000000e+00
2.62526340e-03  1.31693986e+01  7.15550000e-02  6.55530000e+03  1.24800000e-07  0.00000000e+00
2.65151600e-03  1.31689916e+01  7.15620000e-02  6.49100000e+03  1.32900000e-07  0.00000000e+00
2.67803110e-03  1.31685627e+01  7.15690000e-02  6.42740000e+03  1.41400000e-07  0.00000000e+00
2.70481140e-03  1.31681114e+01  7.15760000e-02  6.36440000e+03  1.50500000e-07  0.00000000e+00
2.73185950e-03  1.31676372e+01  7.15840000e-02  6.30200000e+03  1.60200000e-07  0.00000000e+00
2.75917810e-03  1.31671397e+01  7.15910000e-02  6.24020000e+03  1.70400000e-07  0.00000000e+00
2.78676980e-03  1.31666184e+01  7.15980000e-02  6.17910000e+03  1.81300000e-07  0.00000000e+00
2.81463750e-03  1.31660728e+01  7.16060000e-02  6.11860000e+03  1.92900000e-07  0.00000000e+00
2.84278380e-03  1.31655024e+01  7.16140000e-02  6.05860000e+03  2.05100000e-07  0.00000000e+00
2.87121160e-03  1.31649067e+01  7.16210000e-02  5.99930000e+03  2.18200000e-07  0.00000000e+00
2.89992370e-03  1.31642851e+01  7.16290000e-02  5.94050000e+03  2.32000000e-07  0.00000000e+00
2.92892290e-03  1.31636370e+01  7.16370000e-02  5.88240000e+03  2.46600000e-07  0.00000000e+00
2.95821210e-03  1.31629620e+01  7.16450000e-02  5.82480000e+03  2.62200000e-07  0.00000000e+00
2.98779420e-03  1.31622594e+01  7.16530000e-02  5.76770000e+03  2.78700000e-07  0.00000000e+00
3.01767220e-03  1.31615285e+01  7.16610000e-02  5.71130000e+03  2.96200000e-07  0.00000000e+00
3.04784880e-03  1.31607688e+01  7.16690000e-02  5.65540000e+03  3.14700000e-07  0.00000000e+00
3.07832730e-03  1.31599796e+01  7.16770000e-02  5.60000000e+03  3.34400000e-07  0.00000000e+00
3.10911050e-03  1.31591602e+01  7.16860000e-02  5.54520000e+03  3.55300000e-07  0.00000000e+00
3.14020160e-03  1.31583098e+01  7.16940000e-02  5.49100000e+03  3.77400000e-07  0.00000000e+00
3.17160360e-03  1.31574279e+01  7.17030000e-02  5.43720000e+03  4.00900000e-07  0.00000000e+00
3.20331960e-03  1.31565135e+01  7.17110000e-02  5.38410000e+03  4.25700000e-07  0.00000000e+00
3.23535280e-03  1.31555660e+01  7.17200000e-02  5.33140000e+03  4.52000000e-07  0.00000000e+00
3.26770630e-03  1.31545846e+01  7.17290000e-02  5.27930000e+03  4.79900000e-07  0.00000000e+00
3.30038330e-03  1.31535683e+01  7.17370000e-02  5.22760000e+03  5.09500000e-07  0.00000000e+00
3.33338710e-03  1.31525164e+01  7.17460000e-02  5.17650000e+03  5.40800000e-07  0.00000000e+00
3.36672100e-03  1.31514279e+01  7.17550000e-02  5.12590000e+03  5.74000000e-07  0.00000000e+00
3.40038810e-03  1.31503020e+01  7.17650000e-02  5.07580000e+03  6.09100000e-07  0.00000000e+00
3.43439200e-03  1.31491376e+01  7.17740000e-02  5.02620000e+03  6.46300000e-07  0.00000000e+00
3.46873590e-03  1.31479338e+01  7.17830000e-02  4.97710000e+03  6.85700000e-07  0.00000000e+00
3.50342320e-03  1.31466895e+01  7.17930000e-02  4.92840000e+03  7.27400000e-07  0.00000000e+00
3.53845740e-03  1.31454037e+01  7.18020000e-02  4.88030000e+03  7.71500000e-07  0.00000000e+00
3.57384190e-03  1.31440753e+01  7.18120000e-02  4.83260000e+03  8.18200000e-07  0.00000000e+00
3.60958030e-03  1.31427031e+01  7.18220000e-02  4.78540000e+03  8.67700000e-07  0.00000000e+00
3.64567610e-03  1.31412858e+01  7.18310000e-02  4.73870000e+03  9.20000000e-07  0.00000000e+00
3.68213280e-03  1.31398224e+01  7.18410000e-02  4.69240000e+03  9.75300000e-07  0.00000000e+00
3.71895410e-03  1.31383114e+01  7.18510000e-02  4.64660000e+03  1.03400000e-06  0.00000000e+00
3.75614360e-03  1.31367515e+01  7.18610000e-02  4.60130000e+03  1.09600000e-06  0.00000000e+00
3.79370500e-03  1.31351414e+01  7.18720000e-02  4.55630000e+03  1.16100000e-06  0.00000000e+00
3.83164200e-03  1.31335211e+01  7.18820000e-02  4.51190000e+03  1.23000000e-06  0.00000000e+00
3.86995840e-03  1.31318055e+01  7.18920000e-02  4.46790000e+03  1.30400000e-06  0.00000000e+00
3.90865800e-03  1.31300351e+01  7.19030000e-02  4.42430000e+03  1.38100000e-06  0.00000000e+00
3.94774450e-03  1.31282081e+01  7.19140000e-02  4.38110000e+03  1.46300000e-06  0.00000000e+00
3.98722190e-03  1.31263229e+01  7.19240000e-02  4.33840000e+03  1.54900000e-06  0.00000000e+00
4.02709410e-03  1.31243776e+01  7.19350000e-02  4.29610000e+03  1.64100000e-06  0.00000000e+00
4.06736500e-03  1.31223703e+01  7.19460000e-02  4.25420000e+03  1.73700000e-06  0.00000000e+00
4.10803860e-03  1.31202990e+01  7.19570000e-02  4.21270000e+03  1.83900000e-06  0.00000000e+00
4.14911890e-03  1.31181616e+01  7.19690000e-02  4.17170000e+03  1.94700000e-06  0.00000000e+00
4.19061010e-03  1.31159560e+01  7.19800000e-02  4.13100000e+03  2.06100000e-06  0.00000000e+00
4.23251620e-03  1.31136797e+01  7.19920000e-02  4.09080000e+03  2.18100000e-06  0.00000000e+00
4.27484130e-03  1.31113304e+01  7.20030000e-02  4.05090000e+03  2.30800000e-06  0.00000000e+00
4.31758960e-03  1.31089055e+01  7.20150000e-02  4.01150000e+03  2.44200000e-06  0.00000000e+00
4.36076550e-03  1.31064023e+01  7.20270000e-02  3.97240000e+03  2.58300000e-06  0.00000000e+00
4.40437310e-03  1.31038178e+01  7.20390000e-02  3.93370000e+03  2.73200000e-06  0.00000000e+00
4.44841680e-03  1.31011492e+01  7.20510000e-02  3.89540000e+03  2.89000000e-06  0.00000000e+00
4.49290090e-03  1.30983931e+01  7.20630000e-02  3.85750000e+03  3.05600000e-06  0.00000000e+00
4.53782990e-03  1.30955462e+01  7.20750000e-02  3.82000000e+03  3.23200000e-06  0.00000000e+00
4.58320820e-03  1.30926047e+01  7.20880000e-02  3.78280000e+03  3.41700000e-06  0.00000000e+00
4.62904020e-03  1.30895649e+01  7.21000000e-02  3.74600000e+03  3.61200000e-06  0.00000000e+00
4.67533060e-03  1.30864227e+01  7.21130000e-02  3.70960000e+03  3.81800000e-06  0.00000000e+00
4.72208380e-03  1.30831735e+01  7.21260000e-02  3.67350000e+03  4.03500000e-06  0.00000000e+00
4.76930460e-03  1.30798127e+01  7.21390000e-02  3.63780000e+03  4.26400000e-06  0.00000000e+00
4.81699760e-03  1.30763351e+01  7.21520000e-02  3.60240000e+03  4.50600000e-06  0.00000000e+00
4.86516750e-03  1.30727354e+01  7.21650000e-02  3.56740000e+03  4.76000000e-06  0.00000000e+00
4.91381920e-03  1.30690076e+01  7.21790000e-02  3.53270000e+03  5.02900000e-06  0.00000000e+00
4.96295730e-03  1.30651453e+01  7.21920000e-02  3.49840000e+03  5.31200000e-06  0.00000000e+00
5.01258680e-03  1.30611416e+01  7.22060000e-02  3.46440000e+03  5.61000000e-06  0.00000000e+00
5.06271270e-03  1.30569889e+01  7.22200000e-02  3.43080000e+03  5.92400000e-06  0.00000000e+00
5.11333970e-03  1.30526791e+01  7.22340000e-02  3.39750000e+03  6.25500000e-06  0.00000000e+00
5.16447310e-03  1.30482032e+01  7.22480000e-02  3.36450000e+03  6.60400000e-06  0.00000000e+00
5.21611780e-03  1.30435511e+01  7.22620000e-02  3.33190000e+03  6.97100000e-06  0.00000000e+00
5.26827890e-03  1.30387120e+01  7.22760000e-02  3.29950000e+03  7.35800000e-06  0.00000000e+00
5.32096160e-03  1.30336739e+01  7.22910000e-02  3.26750000e+03  7.76500000e-06  0.00000000e+00
5.37417120e-03  1.30284232e+01  7.23060000e-02  3.23580000e+03  8.19400000e-06  0.00000000e+00
5.42791290e-03  1.30229450e+01  7.23210000e-02  3.20440000e+03  8.64500000e-06  0.00000000e+00
5.48219190e-03  1.30172223e+01  7.23360000e-02  3.17340000e+03  9.12100000e-06  0.00000000e+00
5.53701380e-03  1.30112362e+01  7.23510000e-02  3.14260000e+03  9.62100000e-06  0.00000000e+00
5.59238390e-03  1.30049648e+01  7.24320000e-02  3.11500000e+03  1.01500000e-05  0.00000000e+00
5.64830770e-03  1.29983836e+01  7.24500000e-02  3.08490000e+03  1.07000000e-05  0.00000000e+00
5.70479070e-03  1.29914640e+01  7.24690000e-02  3.05520000e+03  1.12800000e-05  0.00000000e+00
5.76183850e-03  1.29841730e+01  7.24890000e-02  3.02570000e+03  1.19000000e-05  0.00000000e+00
5.81945690e-03  1.29764719e+01  7.25090000e-02  2.99660000e+03  1.25400000e-05  0.00000000e+00
5.87765140e-03  1.29683152e+01  7.25300000e-02  2.96780000e+03  1.32200000e-05  0.00000000e+00
5.93642780e-03  1.29596484e+01  7.25510000e-02  2.93930000e+03  1.39300000e-05  0.00000000e+00
5.99579210e-03  1.29504060e+01  7.25730000e-02  2.91110000e+03  1.46800000e-05  0.00000000e+00
6.05574990e-03  1.29405076e+01  7.25970000e-02  2.88320000e+03  1.54700000e-05  0.00000000e+00
6.11630740e-03  1.29298539e+01  7.26220000e-02  2.85560000e+03  1.63000000e-05  0.00000000e+00
6.17747040e-03  1.29183192e+01  7.26480000e-02  2.82840000e+03  1.71700000e-05  0.00000000e+00
6.23924500e-03  1.29057419e+01  7.26760000e-02  2.80150000e+03  1.80900000e-05  0.00000000e+00
6.30163740e-03  1.28919091e+01  7.27070000e-02  2.77490000e+03  1.90500000e-05  0.00000000e+00
6.36465370e-03  1.28765322e+01  7.27420000e-02  2.74870000e+03  2.00600000e-05  0.00000000e+00
6.42830020e-03  1.28592066e+01  7.27810000e-02  2.72300000e+03  2.11300000e-05  0.00000000e+00
6.49258320e-03  1.28393399e+01  7.28280000e-02  2.69780000e+03  2.22400000e-05  0.00000000e+00
6.55750890e-03  1.28160155e+01  7.28860000e-02  2.67320000e+03  2.34200000e-05  0.00000000e+00
6.62308400e-03  1.27877044e+01  7.29640000e-02  2.64950000e+03  2.46500000e-05  0.00000000e+00
6.68931470e-03  1.27515652e+01  7.30800000e-02  2.62750000e+03  2.59400000e-05  0.00000000e+00
6.75620780e-03  1.27013405e+01  7.32890000e-02  2.60890000e+03  2.73000000e-05  0.00000000e+00
6.82376980e-03  1.26180428e+01  7.38380000e-02  2.60240000e+03  2.87200000e-05  0.00000000e+00
6.85903990e-03  1.25362522e+01  7.48190000e-02  2.62340000e+03  2.94900000e-05  0.00000000e+00
6.87951990e-03  1.24445366e+01  7.69240000e-02  2.68920000e+03  2.99400000e-05  0.00000000e+00
6.88975990e-03  1.23525063e+01  8.11170000e-02  2.83160000e+03  3.01700000e-05  0.00000000e+00
6.89200750e-03  1.23196025e+01  8.34670000e-02  2.91270000e+03  3.02200000e-05  0.00000000e+00
