#  Hf:    Z = 72;   Atomic weight = 178.4900 g/mol ;    nominal density:   [INLINE] = 1.3290E+01 g/cm3
#         a(barns/atom) = (cm2/g)    2.96390E+02
#         E(eV) (cm2/g) = f2(e/atom)    2.35757E+05
#         20 edges. Edge energies (keV):
# K      6.53508E+01  L I    1.12707E+01  L II   1.07394E+01  L III  9.56070E+00
# M I    2.60090E+00  M II   2.36540E+00  M III  2.10760E+00  M IV   1.71640E+00
# M V    1.66170E+00  N I    5.38100E-01  N II   4.37000E-01  N III  3.80400E-01
# N IV   2.23800E-01  N V    2.13700E-01  N VI   1.71000E-02  N VII  1.71000E-02
# O I    6.49000E-02  O II   3.81000E-02  O III  3.06000E-02  O IV   5.00000E-03
#         Relativistic correction estimate frel (H82,3/5CL) = -1.3514E+00, -8.0280E-01 e/atom
#         Nuclear Thomson correction fNT = -1.5933E-02 e/atom
#    _________________________________________________________________________________________________________
#  Form Factors, Attenuation and Scattering Cross-sections
#  Z=72, E = 0.001 - 1000 keV
#                                                             Attenuation
#    E         f1            f2                     [INLINE] (coh+inc) Coefficient    K       wavelength
#    keV       e/atom       e/atom      cm2/g       cm2/g      cm2/g          cm2/g        nm
1.01000000e-03  1.07806269e+01  4.91100000e-02  1.14630000e+04  1.84100000e-10  0.00000000e+00
1.02010000e-03  1.07907965e+01  4.91120000e-02  1.13500000e+04  1.98300000e-10  0.00000000e+00
1.03030100e-03  1.07960960e+01  4.91140000e-02  1.12390000e+04  2.13600000e-10  0.00000000e+00
1.04060400e-03  1.08003809e+01  4.91170000e-02  1.11280000e+04  2.30100000e-10  0.00000000e+00
1.05101010e-03  1.08029844e+01  4.91190000e-02  1.10180000e+04  2.47700000e-10  0.00000000e+00
1.06152010e-03  1.08054217e+01  4.91220000e-02  1.09100000e+04  2.66700000e-10  0.00000000e+00
1.07213530e-03  1.08075692e+01  4.91240000e-02  1.08020000e+04  2.87200000e-10  0.00000000e+00
1.08285670e-03  1.08093919e+01  4.91270000e-02  1.06960000e+04  3.09100000e-10  0.00000000e+00
1.09368520e-03  1.08106456e+01  4.91290000e-02  1.05900000e+04  3.32700000e-10  0.00000000e+00
1.10462210e-03  1.08117574e+01  4.91320000e-02  1.04860000e+04  3.58100000e-10  0.00000000e+00
1.11566830e-03  1.08127469e+01  4.91340000e-02  1.03830000e+04  3.85300000e-10  0.00000000e+00
1.12682500e-03  1.08136299e+01  4.91370000e-02  1.02810000e+04  4.14600000e-10  0.00000000e+00
1.13809320e-03  1.08144189e+01  4.91390000e-02  1.01790000e+04  4.46000000e-10  0.00000000e+00
1.14947410e-03  1.08151240e+01  4.91420000e-02  1.00790000e+04  4.79700000e-10  0.00000000e+00
1.16096880e-03  1.08157537e+01  4.91450000e-02  9.97980000e+03  5.16000000e-10  0.00000000e+00
1.17257850e-03  1.08163150e+01  4.91480000e-02  9.88150000e+03  5.54900000e-10  0.00000000e+00
1.18430430e-03  1.08168136e+01  4.91500000e-02  9.78430000e+03  5.96600000e-10  0.00000000e+00
1.19614730e-03  1.08172545e+01  4.91530000e-02  9.68790000e+03  6.41500000e-10  0.00000000e+00
1.20810880e-03  1.08176419e+01  4.91560000e-02  9.59260000e+03  6.89600000e-10  0.00000000e+00
1.22018990e-03  1.08179793e+01  4.91590000e-02  9.49820000e+03  7.41200000e-10  0.00000000e+00
1.23239180e-03  1.08183881e+01  4.91620000e-02  9.40470000e+03  7.96600000e-10  0.00000000e+00
1.24471570e-03  1.08187636e+01  4.91650000e-02  9.31210000e+03  8.56100000e-10  0.00000000e+00
1.25716280e-03  1.08191071e+01  4.91680000e-02  9.22050000e+03  9.19800000e-10  0.00000000e+00
1.26973440e-03  1.08192491e+01  4.91710000e-02  9.12970000e+03  9.88200000e-10  0.00000000e+00
1.28243180e-03  1.08193546e+01  4.91740000e-02  9.03990000e+03  1.06200000e-09  0.00000000e+00
1.29525610e-03  1.08194756e+01  4.91770000e-02  8.95100000e+03  1.14000000e-09  0.00000000e+00
1.30820860e-03  1.08196832e+01  4.91800000e-02  8.86290000e+03  1.22500000e-09  0.00000000e+00
1.32129070e-03  1.08196747e+01  4.91830000e-02  8.77570000e+03  1.31500000e-09  0.00000000e+00
1.33450360e-03  1.08196347e+01  4.91860000e-02  8.68940000e+03  1.41200000e-09  0.00000000e+00
1.34784860e-03  1.08195641e+01  4.91900000e-02  8.60400000e+03  1.51600000e-09  0.00000000e+00
1.36132710e-03  1.08194633e+01  4.91930000e-02  8.51930000e+03  1.62700000e-09  0.00000000e+00
1.37494030e-03  1.08193329e+01  4.91960000e-02  8.43560000e+03  1.74600000e-09  0.00000000e+00
1.38868970e-03  1.08191732e+01  4.92000000e-02  8.35260000e+03  1.87400000e-09  0.00000000e+00
1.40257660e-03  1.08189847e+01  4.92030000e-02  8.27050000e+03  2.01100000e-09  0.00000000e+00
1.41660240e-03  1.08187675e+01  4.92070000e-02  8.18920000e+03  2.15700000e-09  0.00000000e+00
1.43076840e-03  1.08185220e+01  4.92100000e-02  8.10870000e+03  2.31400000e-09  0.00000000e+00
1.44507600e-03  1.08182482e+01  4.92140000e-02  8.02900000e+03  2.48200000e-09  0.00000000e+00
1.45952680e-03  1.08179463e+01  4.92170000e-02  7.95010000e+03  2.66200000e-09  0.00000000e+00
1.47412200e-03  1.08176755e+01  4.92210000e-02  7.87200000e+03  2.85400000e-09  0.00000000e+00
1.48886320e-03  1.08173166e+01  4.92250000e-02  7.79460000e+03  3.06000000e-09  0.00000000e+00
1.50375190e-03  1.08169296e+01  4.92290000e-02  7.71800000e+03  3.28100000e-09  0.00000000e+00
1.51878940e-03  1.08165144e+01  4.92330000e-02  7.64220000e+03  3.51700000e-09  0.00000000e+00
1.53397720e-03  1.08160708e+01  4.92360000e-02  7.56720000e+03  3.76900000e-09  0.00000000e+00
1.54931700e-03  1.08155989e+01  4.92400000e-02  7.49280000e+03  4.03900000e-09  0.00000000e+00
1.56481020e-03  1.08150983e+01  4.92440000e-02  7.41930000e+03  4.32800000e-09  0.00000000e+00
1.58045820e-03  1.08145688e+01  4.92480000e-02  7.34640000e+03  4.63700000e-09  0.00000000e+00
1.59626280e-03  1.08140103e+01  4.92530000e-02  7.27430000e+03  4.96700000e-09  0.00000000e+00
1.61222540e-03  1.08134224e+01  4.92570000e-02  7.20290000e+03  5.32100000e-09  0.00000000e+00
1.62834770e-03  1.08128049e+01  4.92610000e-02  7.13220000e+03  5.69800000e-09  0.00000000e+00
1.64463110e-03  1.08121573e+01  4.92650000e-02  7.06220000e+03  6.10200000e-09  0.00000000e+00
1.66107740e-03  1.08114794e+01  4.92700000e-02  6.99290000e+03  6.53300000e-09  0.00000000e+00
1.67768820e-03  1.08107707e+01  4.92740000e-02  6.92420000e+03  6.99400000e-09  0.00000000e+00
1.69446500e-03  1.08100308e+01  4.92790000e-02  6.85630000e+03  7.48600000e-09  0.00000000e+00
1.71140970e-03  1.08092593e+01  4.92830000e-02  6.78900000e+03  8.01300000e-09  0.00000000e+00
1.72852380e-03  1.08084557e+01  4.92880000e-02  6.72250000e+03  8.57500000e-09  0.00000000e+00
1.74580900e-03  1.08076195e+01  4.92920000e-02  6.65650000e+03  9.17500000e-09  0.00000000e+00
1.76326710e-03  1.08067502e+01  4.92970000e-02  6.59130000e+03  9.81600000e-09  0.00000000e+00
1.78089970e-03  1.08058472e+01  4.93020000e-02  6.52660000e+03  1.05000000e-08  0.00000000e+00
1.79870870e-03  1.08049099e+01  4.93070000e-02  6.46270000e+03  1.12300000e-08  0.00000000e+00
1.81669580e-03  1.08039377e+01  4.93120000e-02  6.39930000e+03  1.20100000e-08  0.00000000e+00
1.83486270e-03  1.08029301e+01  4.93170000e-02  6.33660000e+03  1.28400000e-08  0.00000000e+00
1.85321130e-03  1.08018862e+01  4.93220000e-02  6.27450000e+03  1.37300000e-08  0.00000000e+00
1.87174340e-03  1.08008054e+01  4.93270000e-02  6.21310000e+03  1.46800000e-08  0.00000000e+00
1.89046080e-03  1.07996870e+01  4.93330000e-02  6.15220000e+03  1.56900000e-08  0.00000000e+00
1.90936540e-03  1.07985303e+01  4.93380000e-02  6.09200000e+03  1.67700000e-08  0.00000000e+00
1.92845900e-03  1.07973343e+01  4.93440000e-02  6.03230000e+03  1.79200000e-08  0.00000000e+00
1.94774360e-03  1.07960984e+01  4.93490000e-02  5.97330000e+03  1.91500000e-08  0.00000000e+00
1.96722100e-03  1.07948216e+01  4.93550000e-02  5.91480000e+03  2.04600000e-08  0.00000000e+00
1.98689320e-03  1.07935032e+01  4.93600000e-02  5.85690000e+03  2.18600000e-08  0.00000000e+00
2.00676210e-03  1.07921420e+01  4.93660000e-02  5.79960000e+03  2.33500000e-08  0.00000000e+00
2.02682970e-03  1.07907372e+01  4.93720000e-02  5.74290000e+03  2.49300000e-08  0.00000000e+00
2.04709800e-03  1.07892879e+01  4.93780000e-02  5.68670000e+03  2.66200000e-08  0.00000000e+00
2.06756900e-03  1.07877929e+01  4.93850000e-02  5.63110000e+03  2.84300000e-08  0.00000000e+00
2.08824460e-03  1.07862506e+01  4.93910000e-02  5.57610000e+03  3.03500000e-08  0.00000000e+00
2.10912710e-03  1.07846611e+01  4.93970000e-02  5.52160000e+03  3.23900000e-08  0.00000000e+00
2.13021830e-03  1.07830226e+01  4.94040000e-02  5.46760000e+03  3.45700000e-08  0.00000000e+00
2.15152050e-03  1.07813339e+01  4.94100000e-02  5.41420000e+03  3.68900000e-08  0.00000000e+00
2.17303570e-03  1.07795938e+01  4.94170000e-02  5.36140000e+03  3.93700000e-08  0.00000000e+00
2.19476600e-03  1.07778010e+01  4.94240000e-02  5.30900000e+03  4.20000000e-08  0.00000000e+00
2.21671360e-03  1.07759541e+01  4.94310000e-02  5.25720000e+03  4.48000000e-08  0.00000000e+00
2.23888080e-03  1.07740519e+01  4.94380000e-02  5.20590000e+03  4.77900000e-08  0.00000000e+00
2.26126950e-03  1.07720927e+01  4.94450000e-02  5.15510000e+03  5.09600000e-08  0.00000000e+00
2.28388220e-03  1.07700752e+01  4.94530000e-02  5.10480000e+03  5.43400000e-08  0.00000000e+00
2.30672100e-03  1.07679977e+01  4.94600000e-02  5.05500000e+03  5.79400000e-08  0.00000000e+00
2.32978820e-03  1.07658587e+01  4.94680000e-02  5.00580000e+03  6.17700000e-08  0.00000000e+00
2.35308610e-03  1.07636565e+01  4.94760000e-02  4.95700000e+03  6.58400000e-08  0.00000000e+00
2.37661690e-03  1.07613893e+01  4.94840000e-02  4.90870000e+03  7.01700000e-08  0.00000000e+00
2.40038310e-03  1.07590554e+01  4.94920000e-02  4.86090000e+03  7.47800000e-08  0.00000000e+00
2.42438690e-03  1.07566527e+01  4.95000000e-02  4.81360000e+03  7.96800000e-08  0.00000000e+00
2.44863070e-03  1.07541794e+01  4.95090000e-02  4.76670000e+03  8.48900000e-08  0.00000000e+00
2.47311700e-03  1.07516335e+01  4.95170000e-02  4.72040000e+03  9.04300000e-08  0.00000000e+00
2.49784810e-03  1.07490127e+01  4.95260000e-02  4.67450000e+03  9.63200000e-08  0.00000000e+00
2.52282660e-03  1.07463149e+01  4.95350000e-02  4.62900000e+03  1.02600000e-07  0.00000000e+00
2.54805480e-03  1.07435377e+01  4.95440000e-02  4.58410000e+03  1.09200000e-07  0.00000000e+00
2.57353540e-03  1.07406788e+01  4.95540000e-02  4.53960000e+03  1.16300000e-07  0.00000000e+00
2.59927070e-03  1.07377357e+01  4.95640000e-02  4.49550000e+03  1.23800000e-07  0.00000000e+00
2.62526340e-03  1.07347056e+01  4.95740000e-02  4.45190000e+03  1.31800000e-07  0.00000000e+00
2.65151600e-03  1.07315859e+01  4.95840000e-02  4.40870000e+03  1.40300000e-07  0.00000000e+00
2.67803110e-03  1.07283737e+01  4.95940000e-02  4.36600000e+03  1.49300000e-07  0.00000000e+00
2.70481140e-03  1.07250661e+01  4.96050000e-02  4.32370000e+03  1.58800000e-07  0.00000000e+00
2.73185950e-03  1.07216598e+01  4.96160000e-02  4.28180000e+03  1.69000000e-07  0.00000000e+00
2.75917810e-03  1.07181516e+01  4.96270000e-02  4.24040000e+03  1.79800000e-07  0.00000000e+00
2.78676980e-03  1.07145380e+01  4.96380000e-02  4.19940000e+03  1.91200000e-07  0.00000000e+00
2.81463750e-03  1.07108155e+01  4.96500000e-02  4.15880000e+03  2.03300000e-07  0.00000000e+00
2.84278380e-03  1.07069803e+01  4.96620000e-02  4.11860000e+03  2.16200000e-07  0.00000000e+00
2.87121160e-03  1.07030283e+01  4.96750000e-02  4.07880000e+03  2.29900000e-07  0.00000000e+00
2.89992370e-03  1.06989555e+01  4.96880000e-02  4.03950000e+03  2.44400000e-07  0.00000000e+00
2.92892290e-03  1.06947574e+01  4.97010000e-02  4.00060000e+03  2.59800000e-07  0.00000000e+00
2.95821210e-03  1.06904294e+01  4.97150000e-02  3.96200000e+03  2.76100000e-07  0.00000000e+00
2.98779420e-03  1.06859667e+01  4.97290000e-02  3.92390000e+03  2.93500000e-07  0.00000000e+00
3.01767220e-03  1.06813640e+01  4.97430000e-02  3.88620000e+03  3.11800000e-07  0.00000000e+00
3.04784880e-03  1.06766160e+01  4.97580000e-02  3.84890000e+03  3.31300000e-07  0.00000000e+00
3.07832730e-03  1.06717169e+01  4.97730000e-02  3.81200000e+03  3.51900000e-07  0.00000000e+00
3.10911050e-03  1.06666607e+01  4.97890000e-02  3.77540000e+03  3.73800000e-07  0.00000000e+00
3.14020160e-03  1.06614409e+01  4.98060000e-02  3.73930000e+03  3.97000000e-07  0.00000000e+00
3.17160360e-03  1.06560506e+01  4.98230000e-02  3.70350000e+03  4.21600000e-07  0.00000000e+00
3.20331960e-03  1.06504827e+01  4.98400000e-02  3.66810000e+03  4.47700000e-07  0.00000000e+00
3.23535280e-03  1.06447293e+01  4.98590000e-02  3.63320000e+03  4.75300000e-07  0.00000000e+00
3.26770630e-03  1.06387824e+01  4.98780000e-02  3.59860000e+03  5.04500000e-07  0.00000000e+00
3.30038330e-03  1.06326330e+01  4.98970000e-02  3.56430000e+03  5.35500000e-07  0.00000000e+00
3.33338710e-03  1.06262719e+01  4.99180000e-02  3.53050000e+03  5.68300000e-07  0.00000000e+00
3.36672100e-03  1.06196890e+01  4.99390000e-02  3.49700000e+03  6.03000000e-07  0.00000000e+00
3.40038810e-03  1.06128735e+01  4.99620000e-02  3.46400000e+03  6.39800000e-07  0.00000000e+00
3.43439200e-03  1.06058138e+01  4.99850000e-02  3.43130000e+03  6.78700000e-07  0.00000000e+00
3.46873590e-03  1.05984976e+01  5.00090000e-02  3.39890000e+03  7.19900000e-07  0.00000000e+00
3.50342320e-03  1.05909114e+01  5.00350000e-02  3.36700000e+03  7.63600000e-07  0.00000000e+00
3.53845740e-03  1.05830406e+01  5.00610000e-02  3.33540000e+03  8.09700000e-07  0.00000000e+00
3.57384190e-03  1.05748696e+01  5.00890000e-02  3.30430000e+03  8.58600000e-07  0.00000000e+00
3.60958030e-03  1.05663813e+01  5.01190000e-02  3.27350000e+03  9.10300000e-07  0.00000000e+00
3.64567610e-03  1.05575571e+01  5.01500000e-02  3.24310000e+03  9.65000000e-07  0.00000000e+00
3.68213280e-03  1.05483766e+01  5.01830000e-02  3.21310000e+03  1.02300000e-06  0.00000000e+00
3.71895410e-03  1.05388177e+01  5.02180000e-02  3.18350000e+03  1.08400000e-06  0.00000000e+00
3.75614360e-03  1.05288559e+01  5.02540000e-02  3.15430000e+03  1.14900000e-06  0.00000000e+00
3.79370500e-03  1.05184643e+01  5.02940000e-02  3.12550000e+03  1.21700000e-06  0.00000000e+00
3.83164200e-03  1.05076130e+01  5.03360000e-02  3.09710000e+03  1.28900000e-06  0.00000000e+00
3.86995840e-03  1.04962691e+01  5.03800000e-02  3.06920000e+03  1.36600000e-06  0.00000000e+00
3.90865800e-03  1.04843955e+01  5.04280000e-02  3.04170000e+03  1.44700000e-06  0.00000000e+00
3.94774450e-03  1.04719932e+01  5.04800000e-02  3.01460000e+03  1.53200000e-06  0.00000000e+00
3.98722190e-03  1.04589331e+01  5.05350000e-02  2.98810000e+03  1.62200000e-06  0.00000000e+00
4.02709410e-03  1.04452006e+01  5.05960000e-02  2.96200000e+03  1.71800000e-06  0.00000000e+00
4.06736500e-03  1.04307382e+01  5.06610000e-02  2.93650000e+03  1.81800000e-06  0.00000000e+00
4.10803860e-03  1.04154772e+01  5.07330000e-02  2.91150000e+03  1.92500000e-06  0.00000000e+00
4.14911890e-03  1.03993385e+01  5.08120000e-02  2.88720000e+03  2.03700000e-06  0.00000000e+00
4.19061010e-03  1.03822304e+01  5.08990000e-02  2.86350000e+03  2.15600000e-06  0.00000000e+00
4.23251620e-03  1.03640451e+01  5.09960000e-02  2.84060000e+03  2.28100000e-06  0.00000000e+00
4.27484130e-03  1.03446555e+01  5.11050000e-02  2.81840000e+03  2.41300000e-06  0.00000000e+00
4.31758960e-03  1.03239097e+01  5.12270000e-02  2.79720000e+03  2.55300000e-06  0.00000000e+00
4.36076550e-03  1.03016237e+01  5.13670000e-02  2.77700000e+03  2.70000000e-06  0.00000000e+00
4.40437310e-03  1.02775727e+01  5.15270000e-02  2.75810000e+03  2.85600000e-06  0.00000000e+00
4.44841680e-03  1.02514767e+01  5.17140000e-02  2.74070000e+03  3.02000000e-06  0.00000000e+00
4.49290090e-03  1.02229813e+01  5.19340000e-02  2.72520000e+03  3.19300000e-06  0.00000000e+00
4.53782990e-03  1.01916284e+01  5.21990000e-02  2.71190000e+03  3.37600000e-06  0.00000000e+00
4.58320820e-03  1.01568112e+01  5.25230000e-02  2.70170000e+03  3.56900000e-06  0.00000000e+00
4.62904020e-03  1.01177013e+01  5.29280000e-02  2.69560000e+03  3.77200000e-06  0.00000000e+00
4.67533060e-03  1.00731258e+01  5.34520000e-02  2.69530000e+03  3.98700000e-06  0.00000000e+00
4.72208380e-03  1.00213439e+01  5.41550000e-02  2.70380000e+03  4.21300000e-06  0.00000000e+00
4.76930460e-03  9.95960861e+00  5.51530000e-02  2.72630000e+03  4.45100000e-06  0.00000000e+00
4.81699760e-03  9.88320164e+00  5.66790000e-02  2.77400000e+03  4.70200000e-06  0.00000000e+00
4.86516750e-03  9.78293904e+00  5.93100000e-02  2.87400000e+03  4.96700000e-06  0.00000000e+00
4.91381920e-03  9.63682928e+00  6.49400000e-02  3.11570000e+03  5.24600000e-06  0.00000000e+00
4.96295730e-03  9.36345160e+00  8.55130000e-02  4.06210000e+03  5.54000000e-06  0.00000000e+00
4.96699990e-03  9.32637141e+00  8.99000000e-02  4.26710000e+03  5.56500000e-06  0.00000000e+00
4.98349990e-03  9.10821275e+00  1.29230000e-01  6.11370000e+03  5.66700000e-06  0.00000000e+00
4.99999580e-03  5.89412800e+00  5.61210000e-01  2.64620000e+04  5.77100000e-06  0.00000000e+00
5.00000400e-03  8.24448468e+00  5.61860000e-01  2.64920000e+04  5.77100000e-06  0.00000000e+00
5.01258680e-03  9.02905092e+00  9.69140000e-01  4.55820000e+04  5.85000000e-06  0.00000000e+00
5.01649990e-03  9.11073826e+00  9.92120000e-01  4.66260000e+04  5.87500000e-06  0.00000000e+00
5.03299990e-03  9.32980596e+00  1.02970000e+00  4.82360000e+04  5.98200000e-06  0.00000000e+00
5.06271270e-03  9.53734054e+00  1.04580000e+00  4.87020000e+04  6.17700000e-06  0.00000000e+00
5.11333970e-03  9.72855539e+00  1.05030000e+00  4.84240000e+04  6.52100000e-06  0.00000000e+00
5.16447310e-03  9.84745377e+00  1.04890000e+00  4.78800000e+04  6.88300000e-06  0.00000000e+00
5.21611780e-03  9.93313347e+00  1.04570000e+00  4.72650000e+04  7.26500000e-06  0.00000000e+00
5.26827890e-03  9.99946030e+00  1.04190000e+00  4.66260000e+04  7.66700000e-06  0.00000000e+00
5.32096160e-03  1.00529569e+01  1.03770000e+00  4.59780000e+04  8.09000000e-06  0.00000000e+00
5.37417120e-03  1.00971906e+01  1.03330000e+00  4.53300000e+04  8.53500000e-06  0.00000000e+00
5.42791290e-03  1.01342866e+01  1.02880000e+00  4.46850000e+04  9.00400000e-06  0.00000000e+00
5.48219190e-03  1.01655414e+01  1.02420000e+00  4.40450000e+04  9.49700000e-06  0.00000000e+00
5.53701380e-03  1.01916800e+01  1.01970000e+00  4.34190000e+04  1.00200000e-05  0.00000000e+00
5.59238390e-03  1.02135352e+01  1.01620000e+00  4.28400000e+04  1.05600000e-05  0.00000000e+00
5.64830770e-03  1.02320178e+01  1.01360000e+00  4.23080000e+04  1.11400000e-05  0.00000000e+00
5.70479070e-03  1.02477484e+01  1.01200000e+00  4.18200000e+04  1.17400000e-05  0.00000000e+00
5.76183850e-03  1.02611840e+01  1.01120000e+00  4.13740000e+04  1.23800000e-05  0.00000000e+00
5.81945690e-03  1.02726790e+01  1.01130000e+00  4.09680000e+04  1.30500000e-05  0.00000000e+00
5.87765140e-03  1.02825166e+01  1.01220000e+00  4.05990000e+04  1.37500000e-05  0.00000000e+00
5.93642780e-03  1.02909278e+01  1.01390000e+00  4.02660000e+04  1.44900000e-05  0.00000000e+00
5.99579210e-03  1.02981047e+01  1.01640000e+00  3.99650000e+04  1.52700000e-05  0.00000000e+00
6.05574990e-03  1.03042088e+01  1.01960000e+00  3.96950000e+04  1.60900000e-05  0.00000000e+00
6.11630740e-03  1.03093779e+01  1.02360000e+00  3.94560000e+04  1.69500000e-05  0.00000000e+00
6.17747040e-03  1.03137304e+01  1.02830000e+00  3.92430000e+04  1.78500000e-05  0.00000000e+00
6.23924500e-03  1.03173692e+01  1.03370000e+00  3.90580000e+04  1.88000000e-05  0.00000000e+00
6.30163740e-03  1.03203846e+01  1.03970000e+00  3.88970000e+04  1.97900000e-05  0.00000000e+00
6.36465370e-03  1.03228564e+01  1.04640000e+00  3.87600000e+04  2.08400000e-05  0.00000000e+00
6.42830020e-03  1.03249038e+01  1.05370000e+00  3.86450000e+04  2.19400000e-05  0.00000000e+00
6.49258320e-03  1.03264945e+01  1.06170000e+00  3.85520000e+04  2.31000000e-05  0.00000000e+00
6.55750890e-03  1.03277338e+01  1.07030000e+00  3.84780000e+04  2.43100000e-05  0.00000000e+00
6.62308400e-03  1.03286738e+01  1.07940000e+00  3.84230000e+04  2.55900000e-05  0.00000000e+00
6.68931470e-03  1.03293624e+01  1.08920000e+00  3.83870000e+04  2.69200000e-05  0.00000000e+00
