#  Re:    Z = 75;   Atomic weight = 186.2070 g/mol ;    nominal density:   [INLINE] = 2.0980E+01 g/cm3
#         a(barns/atom) = (cm2/g)    3.09204E+02
#         E(eV) (cm2/g) = f2(e/atom)    2.25987E+05
#         21 edges. Edge energies (keV):
# K      7.16764E+01  L I    1.25267E+01  L II   1.19587E+01  L III  1.05353E+01
# M I    2.93170E+00  M II   2.68160E+00  M III  2.36730E+00  M IV   1.94890E+00
# M V    1.88290E+00  N I    6.25000E-01  N II   5.17900E-01  N III  4.44400E-01
# N IV   2.73700E-01  N V    2.60200E-01  N VI   4.06000E-02  N VII  4.06000E-02
# O I    8.28000E-02  O II   4.56000E-02  O III  3.46000E-02  O IV   6.06267E-03
# O V    5.20913E-03
#         Relativistic correction estimate frel (H82,3/5CL) = -1.5033E+00, -8.8920E-01 e/atom
#         Nuclear Thomson correction fNT = -1.6572E-02 e/atom
#    _________________________________________________________________________________________________________
#  Form Factors, Attenuation and Scattering Cross-sections
#  Z=75, E = 0.001 - 1000 keV
#                                                             Attenuation
#    E         f1            f2                     [INLINE] (coh+inc) Coefficient    K       wavelength
#    keV       e/atom       e/atom      cm2/g       cm2/g      cm2/g          cm2/g        nm
1.01000000e-03  8.78330044e+00  3.66660000e-02  8.20410000e+03  2.28000000e-10  0.00000000e+00
1.02010000e-03  8.78983876e+00  3.66760000e-02  8.12500000e+03  2.45400000e-10  0.00000000e+00
1.03030100e-03  8.79414222e+00  3.66860000e-02  8.04670000e+03  2.64200000e-10  0.00000000e+00
1.04060400e-03  8.79627632e+00  3.66960000e-02  7.96930000e+03  2.84400000e-10  0.00000000e+00
1.05101010e-03  8.79810019e+00  3.67060000e-02  7.89260000e+03  3.06000000e-10  0.00000000e+00
1.06152020e-03  8.79933836e+00  3.67170000e-02  7.81660000e+03  3.29300000e-10  0.00000000e+00
1.07213540e-03  8.80058253e+00  3.67270000e-02  7.74150000e+03  3.54400000e-10  0.00000000e+00
1.08285670e-03  8.80169511e+00  3.67380000e-02  7.66710000e+03  3.81200000e-10  0.00000000e+00
1.09368530e-03  8.80243744e+00  3.67490000e-02  7.59340000e+03  4.10100000e-10  0.00000000e+00
1.10462210e-03  8.80286483e+00  3.67600000e-02  7.52050000e+03  4.41100000e-10  0.00000000e+00
1.11566830e-03  8.80320310e+00  3.67710000e-02  7.44830000e+03  4.74400000e-10  0.00000000e+00
1.12682500e-03  8.80346229e+00  3.67820000e-02  7.37680000e+03  5.10100000e-10  0.00000000e+00
1.13809330e-03  8.80365041e+00  3.67940000e-02  7.30600000e+03  5.48400000e-10  0.00000000e+00
1.14947420e-03  8.80377395e+00  3.68060000e-02  7.23600000e+03  5.89600000e-10  0.00000000e+00
1.16096900e-03  8.80383821e+00  3.68170000e-02  7.16660000e+03  6.33800000e-10  0.00000000e+00
1.17257860e-03  8.80384761e+00  3.68290000e-02  7.09800000e+03  6.81200000e-10  0.00000000e+00
1.18430440e-03  8.80380581e+00  3.68420000e-02  7.03000000e+03  7.32000000e-10  0.00000000e+00
1.19614750e-03  8.80371589e+00  3.68540000e-02  6.96280000e+03  7.86600000e-10  0.00000000e+00
1.20810900e-03  8.80358046e+00  3.68660000e-02  6.89620000e+03  8.45100000e-10  0.00000000e+00
1.22019000e-03  8.80340171e+00  3.68790000e-02  6.83020000e+03  9.07900000e-10  0.00000000e+00
1.23239190e-03  8.80318152e+00  3.68920000e-02  6.76500000e+03  9.75200000e-10  0.00000000e+00
1.24471590e-03  8.80292147e+00  3.69050000e-02  6.70040000e+03  1.04700000e-09  0.00000000e+00
1.25716300e-03  8.80262293e+00  3.69180000e-02  6.63640000e+03  1.12500000e-09  0.00000000e+00
1.26973460e-03  8.80242747e+00  3.69320000e-02  6.57310000e+03  1.20800000e-09  0.00000000e+00
1.28243200e-03  8.80231385e+00  3.69450000e-02  6.51040000e+03  1.29600000e-09  0.00000000e+00
1.29525630e-03  8.80188429e+00  3.69590000e-02  6.44840000e+03  1.39200000e-09  0.00000000e+00
1.30820890e-03  8.80142136e+00  3.69730000e-02  6.38700000e+03  1.49400000e-09  0.00000000e+00
1.32129100e-03  8.80092550e+00  3.69880000e-02  6.32620000e+03  1.60300000e-09  0.00000000e+00
1.33450390e-03  8.80039706e+00  3.70020000e-02  6.26600000e+03  1.72000000e-09  0.00000000e+00
1.34784890e-03  8.80001637e+00  3.70170000e-02  6.20640000e+03  1.84600000e-09  0.00000000e+00
1.36132740e-03  8.79941493e+00  3.70320000e-02  6.14750000e+03  1.98000000e-09  0.00000000e+00
1.37494070e-03  8.79878199e+00  3.70470000e-02  6.08910000e+03  2.12400000e-09  0.00000000e+00
1.38869010e-03  8.79811756e+00  3.70630000e-02  6.03130000e+03  2.27800000e-09  0.00000000e+00
1.40257700e-03  8.79742164e+00  3.70780000e-02  5.97410000e+03  2.44300000e-09  0.00000000e+00
1.41660280e-03  8.79669415e+00  3.70940000e-02  5.91750000e+03  2.61900000e-09  0.00000000e+00
1.43076880e-03  8.79593496e+00  3.71100000e-02  5.86150000e+03  2.80800000e-09  0.00000000e+00
1.44507650e-03  8.79514393e+00  3.71270000e-02  5.80600000e+03  3.01000000e-09  0.00000000e+00
1.45952720e-03  8.79432084e+00  3.71430000e-02  5.75110000e+03  3.22700000e-09  0.00000000e+00
1.47412250e-03  8.79346547e+00  3.71600000e-02  5.69680000e+03  3.45800000e-09  0.00000000e+00
1.48886370e-03  8.79257754e+00  3.71780000e-02  5.64300000e+03  3.70600000e-09  0.00000000e+00
1.50375240e-03  8.79165674e+00  3.71950000e-02  5.58980000e+03  3.97000000e-09  0.00000000e+00
1.51878990e-03  8.79070275e+00  3.72130000e-02  5.53710000e+03  4.25300000e-09  0.00000000e+00
1.53397780e-03  8.78971518e+00  3.72310000e-02  5.48490000e+03  4.55600000e-09  0.00000000e+00
1.54931760e-03  8.78875515e+00  3.72490000e-02  5.43330000e+03  4.88000000e-09  0.00000000e+00
1.56481070e-03  8.78769843e+00  3.72680000e-02  5.38220000e+03  5.22600000e-09  0.00000000e+00
1.58045890e-03  8.78660686e+00  3.72870000e-02  5.33160000e+03  5.59600000e-09  0.00000000e+00
1.59626340e-03  8.78547997e+00  3.73070000e-02  5.28160000e+03  5.99100000e-09  0.00000000e+00
1.61222610e-03  8.78431723e+00  3.73260000e-02  5.23200000e+03  6.41300000e-09  0.00000000e+00
1.62834830e-03  8.78311811e+00  3.73460000e-02  5.18300000e+03  6.86400000e-09  0.00000000e+00
1.64463180e-03  8.78188205e+00  3.73670000e-02  5.13450000e+03  7.34600000e-09  0.00000000e+00
1.66107810e-03  8.78060846e+00  3.73870000e-02  5.08650000e+03  7.86100000e-09  0.00000000e+00
1.67768890e-03  8.77929671e+00  3.74080000e-02  5.03890000e+03  8.41100000e-09  0.00000000e+00
1.69446580e-03  8.77794618e+00  3.74300000e-02  4.99190000e+03  8.99800000e-09  0.00000000e+00
1.71141050e-03  8.77655618e+00  3.74520000e-02  4.94540000e+03  9.62500000e-09  0.00000000e+00
1.72852460e-03  8.77512602e+00  3.74740000e-02  4.89930000e+03  1.02900000e-08  0.00000000e+00
1.74580980e-03  8.77365497e+00  3.74960000e-02  4.85370000e+03  1.10100000e-08  0.00000000e+00
1.76326790e-03  8.77214230e+00  3.75190000e-02  4.80860000e+03  1.17700000e-08  0.00000000e+00
1.78090060e-03  8.77058722e+00  3.75430000e-02  4.76400000e+03  1.25900000e-08  0.00000000e+00
1.79870960e-03  8.76898893e+00  3.75660000e-02  4.71980000e+03  1.34500000e-08  0.00000000e+00
1.81669670e-03  8.76734660e+00  3.75910000e-02  4.67610000e+03  1.43800000e-08  0.00000000e+00
1.83486370e-03  8.76565937e+00  3.76150000e-02  4.63280000e+03  1.53700000e-08  0.00000000e+00
1.85321230e-03  8.76392635e+00  3.76410000e-02  4.59000000e+03  1.64200000e-08  0.00000000e+00
1.87174440e-03  8.76214662e+00  3.76660000e-02  4.54770000e+03  1.75500000e-08  0.00000000e+00
1.89046190e-03  8.76031924e+00  3.76920000e-02  4.50580000e+03  1.87500000e-08  0.00000000e+00
1.90936650e-03  8.75844324e+00  3.77190000e-02  4.46430000e+03  2.00300000e-08  0.00000000e+00
1.92846020e-03  8.75651759e+00  3.77460000e-02  4.42330000e+03  2.13900000e-08  0.00000000e+00
1.94774480e-03  8.75454127e+00  3.77740000e-02  4.38270000e+03  2.28400000e-08  0.00000000e+00
1.96722220e-03  8.75251319e+00  3.78020000e-02  4.34250000e+03  2.43900000e-08  0.00000000e+00
1.98689440e-03  8.75043226e+00  3.78310000e-02  4.30280000e+03  2.60400000e-08  0.00000000e+00
2.00676340e-03  8.74829734e+00  3.78600000e-02  4.26350000e+03  2.78000000e-08  0.00000000e+00
2.02683100e-03  8.74610725e+00  3.78900000e-02  4.22460000e+03  2.96700000e-08  0.00000000e+00
2.04709930e-03  8.74386077e+00  3.79200000e-02  4.18620000e+03  3.16700000e-08  0.00000000e+00
2.06757030e-03  8.74155667e+00  3.79510000e-02  4.14810000e+03  3.37900000e-08  0.00000000e+00
2.08824600e-03  8.73919365e+00  3.79830000e-02  4.11050000e+03  3.60600000e-08  0.00000000e+00
2.10912850e-03  8.73677039e+00  3.80150000e-02  4.07320000e+03  3.84700000e-08  0.00000000e+00
2.13021980e-03  8.73428553e+00  3.80490000e-02  4.03640000e+03  4.10300000e-08  0.00000000e+00
2.15152200e-03  8.73173766e+00  3.80820000e-02  4.00000000e+03  4.37600000e-08  0.00000000e+00
2.17303720e-03  8.72912532e+00  3.81170000e-02  3.96400000e+03  4.66700000e-08  0.00000000e+00
2.19476750e-03  8.72644703e+00  3.81520000e-02  3.92840000e+03  4.97700000e-08  0.00000000e+00
2.21671520e-03  8.72370123e+00  3.81880000e-02  3.89310000e+03  5.30600000e-08  0.00000000e+00
2.23888240e-03  8.72088635e+00  3.82250000e-02  3.85830000e+03  5.65600000e-08  0.00000000e+00
2.26127120e-03  8.71800074e+00  3.82620000e-02  3.82380000e+03  6.02900000e-08  0.00000000e+00
2.28388390e-03  8.71504272e+00  3.83000000e-02  3.78980000e+03  6.42600000e-08  0.00000000e+00
2.30672270e-03  8.71201054e+00  3.83400000e-02  3.75610000e+03  6.84800000e-08  0.00000000e+00
2.32979000e-03  8.70890241e+00  3.83800000e-02  3.72280000e+03  7.29600000e-08  0.00000000e+00
2.35308790e-03  8.70571648e+00  3.84210000e-02  3.68990000e+03  7.77300000e-08  0.00000000e+00
2.37661870e-03  8.70245083e+00  3.84630000e-02  3.65730000e+03  8.28000000e-08  0.00000000e+00
2.40038490e-03  8.69910350e+00  3.85060000e-02  3.62520000e+03  8.81900000e-08  0.00000000e+00
2.42438880e-03  8.69567244e+00  3.85500000e-02  3.59340000e+03  9.39200000e-08  0.00000000e+00
2.44863270e-03  8.69215556e+00  3.85950000e-02  3.56190000e+03  1.00000000e-07  0.00000000e+00
2.47311900e-03  8.68855069e+00  3.86410000e-02  3.53090000e+03  1.06500000e-07  0.00000000e+00
2.49785020e-03  8.68485557e+00  3.86880000e-02  3.50020000e+03  1.13400000e-07  0.00000000e+00
2.52282870e-03  8.68106791e+00  3.87360000e-02  3.46990000e+03  1.20700000e-07  0.00000000e+00
2.54805700e-03  8.67718531e+00  3.87860000e-02  3.43990000e+03  1.28400000e-07  0.00000000e+00
2.57353760e-03  8.67320528e+00  3.88360000e-02  3.41030000e+03  1.36700000e-07  0.00000000e+00
2.59927290e-03  8.66912528e+00  3.88880000e-02  3.38110000e+03  1.45400000e-07  0.00000000e+00
2.62526570e-03  8.66494267e+00  3.89420000e-02  3.35220000e+03  1.54700000e-07  0.00000000e+00
2.65151830e-03  8.66065470e+00  3.89970000e-02  3.32370000e+03  1.64600000e-07  0.00000000e+00
2.67803350e-03  8.65625854e+00  3.90530000e-02  3.29550000e+03  1.75000000e-07  0.00000000e+00
2.70481380e-03  8.65175126e+00  3.91110000e-02  3.26770000e+03  1.86200000e-07  0.00000000e+00
2.73186200e-03  8.64712982e+00  3.91700000e-02  3.24020000e+03  1.98000000e-07  0.00000000e+00
2.75918060e-03  8.64239109e+00  3.92310000e-02  3.21320000e+03  2.10500000e-07  0.00000000e+00
2.78677240e-03  8.63753178e+00  3.92940000e-02  3.18640000e+03  2.23800000e-07  0.00000000e+00
2.81464010e-03  8.63254853e+00  3.93580000e-02  3.16000000e+03  2.37900000e-07  0.00000000e+00
2.84278650e-03  8.62743782e+00  3.94240000e-02  3.13400000e+03  2.52800000e-07  0.00000000e+00
2.87121440e-03  8.62219601e+00  3.94920000e-02  3.10830000e+03  2.68700000e-07  0.00000000e+00
2.89992650e-03  8.61681933e+00  3.95620000e-02  3.08300000e+03  2.85500000e-07  0.00000000e+00
2.92892580e-03  8.61130383e+00  3.96350000e-02  3.05810000e+03  3.03300000e-07  0.00000000e+00
2.95821510e-03  8.60564544e+00  3.97090000e-02  3.03350000e+03  3.22200000e-07  0.00000000e+00
2.98779720e-03  8.59983991e+00  3.97860000e-02  3.00930000e+03  3.42200000e-07  0.00000000e+00
3.01767520e-03  8.59388282e+00  3.98650000e-02  2.98540000e+03  3.63500000e-07  0.00000000e+00
3.04785190e-03  8.58776956e+00  3.99460000e-02  2.96190000e+03  3.86000000e-07  0.00000000e+00
3.07833040e-03  8.58149535e+00  4.00310000e-02  2.93870000e+03  4.09800000e-07  0.00000000e+00
3.10911370e-03  8.57505517e+00  4.01180000e-02  2.91600000e+03  4.35100000e-07  0.00000000e+00
3.14020490e-03  8.56844383e+00  4.02080000e-02  2.89360000e+03  4.61900000e-07  0.00000000e+00
3.17160690e-03  8.56165587e+00  4.03010000e-02  2.87150000e+03  4.90200000e-07  0.00000000e+00
3.20332300e-03  8.55468560e+00  4.03970000e-02  2.84990000e+03  5.20300000e-07  0.00000000e+00
3.23535620e-03  8.54752707e+00  4.04960000e-02  2.82860000e+03  5.52100000e-07  0.00000000e+00
3.26770980e-03  8.54017407e+00  4.05990000e-02  2.80770000e+03  5.85800000e-07  0.00000000e+00
3.30038690e-03  8.53262007e+00  4.07060000e-02  2.78730000e+03  6.21400000e-07  0.00000000e+00
3.33339080e-03  8.52485825e+00  4.08170000e-02  2.76720000e+03  6.59200000e-07  0.00000000e+00
3.36672470e-03  8.51688143e+00  4.09320000e-02  2.74750000e+03  6.99100000e-07  0.00000000e+00
3.40039190e-03  8.50868208e+00  4.10510000e-02  2.72820000e+03  7.41400000e-07  0.00000000e+00
3.43439580e-03  8.50025228e+00  4.11750000e-02  2.70940000e+03  7.86200000e-07  0.00000000e+00
3.46873980e-03  8.49158371e+00  4.13050000e-02  2.69100000e+03  8.33500000e-07  0.00000000e+00
3.50342720e-03  8.48266759e+00  4.14390000e-02  2.67300000e+03  8.83600000e-07  0.00000000e+00
3.53846150e-03  8.47349465e+00  4.15790000e-02  2.65550000e+03  9.36600000e-07  0.00000000e+00
3.57384610e-03  8.46405511e+00  4.17250000e-02  2.63840000e+03  9.92600000e-07  0.00000000e+00
3.60958450e-03  8.45433861e+00  4.18780000e-02  2.62190000e+03  1.05200000e-06  0.00000000e+00
3.64568040e-03  8.44433420e+00  4.20370000e-02  2.60580000e+03  1.11500000e-06  0.00000000e+00
3.68213720e-03  8.43403024e+00  4.22040000e-02  2.59020000e+03  1.18100000e-06  0.00000000e+00
3.71895860e-03  8.42341436e+00  4.23790000e-02  2.57520000e+03  1.25100000e-06  0.00000000e+00
3.75614810e-03  8.41247340e+00  4.25620000e-02  2.56070000e+03  1.32500000e-06  0.00000000e+00
3.79370960e-03  8.40119333e+00  4.27550000e-02  2.54690000e+03  1.40300000e-06  0.00000000e+00
3.83164670e-03  8.38955914e+00  4.29570000e-02  2.53360000e+03  1.48600000e-06  0.00000000e+00
3.86996320e-03  8.37755477e+00  4.31710000e-02  2.52100000e+03  1.57300000e-06  0.00000000e+00
3.90866280e-03  8.36516296e+00  4.33960000e-02  2.50900000e+03  1.66500000e-06  0.00000000e+00
3.94774950e-03  8.35236516e+00  4.36340000e-02  2.49780000e+03  1.76300000e-06  0.00000000e+00
3.98722690e-03  8.33914134e+00  4.38850000e-02  2.48730000e+03  1.86600000e-06  0.00000000e+00
4.02709920e-03  8.32546984e+00  4.41520000e-02  2.47770000e+03  1.97500000e-06  0.00000000e+00
4.06737020e-03  8.31132712e+00  4.44360000e-02  2.46890000e+03  2.09000000e-06  0.00000000e+00
4.10804390e-03  8.29668759e+00  4.47380000e-02  2.46110000e+03  2.21100000e-06  0.00000000e+00
4.14912440e-03  8.28152322e+00  4.50610000e-02  2.45430000e+03  2.33900000e-06  0.00000000e+00
4.19061560e-03  8.26580327e+00  4.54060000e-02  2.44860000e+03  2.47400000e-06  0.00000000e+00
4.23252170e-03  8.24949386e+00  4.57780000e-02  2.44420000e+03  2.61700000e-06  0.00000000e+00
4.27484700e-03  8.23260142e+00  4.61780000e-02  2.44110000e+03  2.76700000e-06  0.00000000e+00
4.31759540e-03  8.21499560e+00  4.66100000e-02  2.43960000e+03  2.92600000e-06  0.00000000e+00
4.36077140e-03  8.19667397e+00  4.70800000e-02  2.43980000e+03  3.09300000e-06  0.00000000e+00
4.40437910e-03  8.17758355e+00  4.75920000e-02  2.44190000e+03  3.27000000e-06  0.00000000e+00
4.44842290e-03  8.15766407e+00  4.81530000e-02  2.44630000e+03  3.45700000e-06  0.00000000e+00
4.49290710e-03  8.13684636e+00  4.87720000e-02  2.45320000e+03  3.65300000e-06  0.00000000e+00
4.53783620e-03  8.11505020e+00  4.94590000e-02  2.46310000e+03  3.86100000e-06  0.00000000e+00
4.58321460e-03  8.09218148e+00  5.02280000e-02  2.47660000e+03  4.07900000e-06  0.00000000e+00
4.62904670e-03  8.06812833e+00  5.10960000e-02  2.49440000e+03  4.31000000e-06  0.00000000e+00
4.67533720e-03  8.04275560e+00  5.20860000e-02  2.51760000e+03  4.55300000e-06  0.00000000e+00
4.72209050e-03  8.01589694e+00  5.32310000e-02  2.54750000e+03  4.80900000e-06  0.00000000e+00
4.76931140e-03  7.98734302e+00  5.45770000e-02  2.58600000e+03  5.07800000e-06  0.00000000e+00
4.81700460e-03  7.95682322e+00  5.61900000e-02  2.63610000e+03  5.36300000e-06  0.00000000e+00
4.86517460e-03  7.92397602e+00  5.81770000e-02  2.70230000e+03  5.66200000e-06  0.00000000e+00
4.91382640e-03  7.88829851e+00  6.07060000e-02  2.79190000e+03  5.97800000e-06  0.00000000e+00
4.96296460e-03  7.84905497e+00  6.40820000e-02  2.91790000e+03  6.31000000e-06  0.00000000e+00
5.01259430e-03  7.80509933e+00  6.88960000e-02  3.10610000e+03  6.66100000e-06  0.00000000e+00
5.06272020e-03  7.75450870e+00  7.64800000e-02  3.41380000e+03  7.02900000e-06  0.00000000e+00
5.11334740e-03  7.69386357e+00  9.04890000e-02  3.99920000e+03  7.41800000e-06  0.00000000e+00
5.16448090e-03  7.61876970e+00  1.24000000e-01  5.42610000e+03  7.82600000e-06  0.00000000e+00
5.20907770e-03  7.55717791e+00  1.96760000e-01  8.53600000e+03  8.19700000e-06  0.00000000e+00
5.20917250e-03  7.56663906e+00  1.96950000e-01  8.54430000e+03  8.19800000e-06  0.00000000e+00
5.21612570e-03  7.55912888e+00  2.11140000e-01  9.14780000e+03  8.25700000e-06  0.00000000e+00
5.26828690e-03  7.57267146e+00  2.82920000e-01  1.21360000e+04  8.71000000e-06  0.00000000e+00
5.32096980e-03  7.58390199e+00  3.09130000e-01  1.31290000e+04  9.18600000e-06  0.00000000e+00
5.37417950e-03  7.58055495e+00  3.21480000e-01  1.35180000e+04  9.68800000e-06  0.00000000e+00
5.42792130e-03  7.56683629e+00  3.29160000e-01  1.37040000e+04  1.02200000e-05  0.00000000e+00
5.48220050e-03  7.54513344e+00  3.34980000e-01  1.38080000e+04  1.07700000e-05  0.00000000e+00
5.53702250e-03  7.51644068e+00  3.40110000e-01  1.38810000e+04  1.13600000e-05  0.00000000e+00
5.59239280e-03  7.48091650e+00  3.45220000e-01  1.39500000e+04  1.19700000e-05  0.00000000e+00
5.64831670e-03  7.43808456e+00  3.50830000e-01  1.40370000e+04  1.26200000e-05  0.00000000e+00
5.70479980e-03  7.38680696e+00  3.57550000e-01  1.41640000e+04  1.33000000e-05  0.00000000e+00
5.76184780e-03  7.32504004e+00  3.66310000e-01  1.43670000e+04  1.40100000e-05  0.00000000e+00
5.81946630e-03  7.24944598e+00  3.79000000e-01  1.47180000e+04  1.47600000e-05  0.00000000e+00
5.87766100e-03  7.15418304e+00  3.99130000e-01  1.53460000e+04  1.55500000e-05  0.00000000e+00
5.93643760e-03  7.02782165e+00  4.35890000e-01  1.65930000e+04  1.63800000e-05  0.00000000e+00
5.99580200e-03  6.84823513e+00  5.22380000e-01  1.96890000e+04  1.72500000e-05  0.00000000e+00
6.05576000e-03  6.64885162e+00  8.01610000e-01  2.99140000e+04  1.81700000e-05  0.00000000e+00
6.06261590e-03  6.69463506e+00  8.52250000e-01  3.17680000e+04  1.82800000e-05  0.00000000e+00
6.06272620e-03  6.59270895e+00  8.53070000e-01  3.17980000e+04  1.82800000e-05  0.00000000e+00
6.11631760e-03  6.78276583e+00  1.14420000e+00  4.22760000e+04  1.91300000e-05  0.00000000e+00
6.17748080e-03  6.96026257e+00  1.25350000e+00  4.58550000e+04  2.01400000e-05  0.00000000e+00
6.23925560e-03  7.07774834e+00  1.29530000e+00  4.69150000e+04  2.12000000e-05  0.00000000e+00
6.30164810e-03  7.15955835e+00  1.31680000e+00  4.72220000e+04  2.23200000e-05  0.00000000e+00
6.36466460e-03  7.21948198e+00  1.33000000e+00  4.72240000e+04  2.34900000e-05  0.00000000e+00
6.42831130e-03  7.26460768e+00  1.33920000e+00  4.70790000e+04  2.47200000e-05  0.00000000e+00
6.49259440e-03  7.29889636e+00  1.34620000e+00  4.68560000e+04  2.60100000e-05  0.00000000e+00
6.55752030e-03  7.32470407e+00  1.35190000e+00  4.65890000e+04  2.73700000e-05  0.00000000e+00
6.62309550e-03  7.34344300e+00  1.35680000e+00  4.62970000e+04  2.87900000e-05  0.00000000e+00
6.68932650e-03  7.35582233e+00  1.36140000e+00  4.59930000e+04  3.02900000e-05  0.00000000e+00
6.75621970e-03  7.36242132e+00  1.36700000e+00  4.57230000e+04  3.18500000e-05  0.00000000e+00
