#  Hg:    Z = 80;   Atomic weight = 200.5900 g/mol ;    nominal density:   [INLINE] = 1.3522E+01 g/cm3
#         a(barns/atom) = (cm2/g)    3.33088E+02
#         E(eV) (cm2/g) = f2(e/atom)    2.09783E+05
#         22 edges. Edge energies (keV):
# K      8.31023E+01  L I    1.48393E+01  L II   1.42087E+01  L III  1.22839E+01
# M I    3.56160E+00  M II   3.27850E+00  M III  2.84710E+00  M IV   2.38490E+00
# M V    2.29490E+00  N I    8.00300E-01  N II   6.76900E-01  N III  5.71000E-01
# N IV   3.78300E-01  N V    3.59800E-01  N VI   1.02200E-01  N VII  9.85000E-02
# O I    1.20300E-01  O II   8.05000E-02  O III  5.76000E-02  O IV   6.40000E-03
# O V    6.40000E-03  P I    7.71361E-03
#         Relativistic correction estimate frel (H82,3/5CL) = -1.7805E+00, -1.0458E+00 e/atom
#         Nuclear Thomson correction fNT = -1.7503E-02 e/atom
#    _________________________________________________________________________________________________________
#  Form Factors, Attenuation and Scattering Cross-sections
#  Z=80, E = 0.001 - 1000 keV
#                                                             Attenuation
#    E         f1            f2                     [INLINE] (coh+inc) Coefficient    K       wavelength
#    keV       e/atom       e/atom      cm2/g       cm2/g      cm2/g          cm2/g        nm
1.01000000e-03  6.82626508e+00  4.38190000e-02  9.10140000e+03  1.65800000e-10  0.00000000e+00
1.02010000e-03  6.83430160e+00  4.38520000e-02  9.01810000e+03  1.78700000e-10  0.00000000e+00
1.03030100e-03  6.83897842e+00  4.38850000e-02  8.93560000e+03  1.92700000e-10  0.00000000e+00
1.04060400e-03  6.84141198e+00  4.39190000e-02  8.85400000e+03  2.07700000e-10  0.00000000e+00
1.05101010e-03  6.84322887e+00  4.39540000e-02  8.77320000e+03  2.23800000e-10  0.00000000e+00
1.06152020e-03  6.84462414e+00  4.39880000e-02  8.69320000e+03  2.41100000e-10  0.00000000e+00
1.07213540e-03  6.84570895e+00  4.40240000e-02  8.61410000e+03  2.59800000e-10  0.00000000e+00
1.08285670e-03  6.84655325e+00  4.40600000e-02  8.53570000e+03  2.79800000e-10  0.00000000e+00
1.09368530e-03  6.84773199e+00  4.40960000e-02  8.45820000e+03  3.01400000e-10  0.00000000e+00
1.10462210e-03  6.84814107e+00  4.41330000e-02  8.38140000e+03  3.24600000e-10  0.00000000e+00
1.11566830e-03  6.84856685e+00  4.41700000e-02  8.30550000e+03  3.49500000e-10  0.00000000e+00
1.12682500e-03  6.84873267e+00  4.42080000e-02  8.23030000e+03  3.76300000e-10  0.00000000e+00
1.13809330e-03  6.84880694e+00  4.42460000e-02  8.15590000e+03  4.05100000e-10  0.00000000e+00
1.14947420e-03  6.84879851e+00  4.42850000e-02  8.08220000e+03  4.36000000e-10  0.00000000e+00
1.16096900e-03  6.84871447e+00  4.43250000e-02  8.00930000e+03  4.69300000e-10  0.00000000e+00
1.17257860e-03  6.84856060e+00  4.43650000e-02  7.93720000e+03  5.05000000e-10  0.00000000e+00
1.18430440e-03  6.84834163e+00  4.44060000e-02  7.86580000e+03  5.43300000e-10  0.00000000e+00
1.19614750e-03  6.84806149e+00  4.44470000e-02  7.79520000e+03  5.84500000e-10  0.00000000e+00
1.20810900e-03  6.84772344e+00  4.44890000e-02  7.72530000e+03  6.28700000e-10  0.00000000e+00
1.22019000e-03  6.84733022e+00  4.45310000e-02  7.65610000e+03  6.76200000e-10  0.00000000e+00
1.23239190e-03  6.84688411e+00  4.45740000e-02  7.58760000e+03  7.27100000e-10  0.00000000e+00
1.24471590e-03  6.84638706e+00  4.46180000e-02  7.51980000e+03  7.81800000e-10  0.00000000e+00
1.25716300e-03  6.84584067e+00  4.46620000e-02  7.45280000e+03  8.40500000e-10  0.00000000e+00
1.26973460e-03  6.84524631e+00  4.47070000e-02  7.38640000e+03  9.03500000e-10  0.00000000e+00
1.28243200e-03  6.84460512e+00  4.47530000e-02  7.32070000e+03  9.71100000e-10  0.00000000e+00
1.29525630e-03  6.84391802e+00  4.47990000e-02  7.25570000e+03  1.04400000e-09  0.00000000e+00
1.30820890e-03  6.84318580e+00  4.48460000e-02  7.19140000e+03  1.12100000e-09  0.00000000e+00
1.32129100e-03  6.84240908e+00  4.48940000e-02  7.12780000e+03  1.20500000e-09  0.00000000e+00
1.33450390e-03  6.84172756e+00  4.49420000e-02  7.06480000e+03  1.29400000e-09  0.00000000e+00
1.34784890e-03  6.84094826e+00  4.49910000e-02  7.00250000e+03  1.39000000e-09  0.00000000e+00
1.36132740e-03  6.84012777e+00  4.50410000e-02  6.94090000e+03  1.49300000e-09  0.00000000e+00
1.37494070e-03  6.83916286e+00  4.50910000e-02  6.87990000e+03  1.60300000e-09  0.00000000e+00
1.38869010e-03  6.83815565e+00  4.51430000e-02  6.81950000e+03  1.72100000e-09  0.00000000e+00
1.40257700e-03  6.83710612e+00  4.51950000e-02  6.75980000e+03  1.84800000e-09  0.00000000e+00
1.41660280e-03  6.83612020e+00  4.52480000e-02  6.70070000e+03  1.98300000e-09  0.00000000e+00
1.43076880e-03  6.83498032e+00  4.53020000e-02  6.64220000e+03  2.12900000e-09  0.00000000e+00
1.44507650e-03  6.83384073e+00  4.53560000e-02  6.58440000e+03  2.28400000e-09  0.00000000e+00
1.45952720e-03  6.83261475e+00  4.54120000e-02  6.52720000e+03  2.45100000e-09  0.00000000e+00
1.47412250e-03  6.83134562e+00  4.54680000e-02  6.47060000e+03  2.62900000e-09  0.00000000e+00
1.48886370e-03  6.83008485e+00  4.55250000e-02  6.41460000e+03  2.82000000e-09  0.00000000e+00
1.50375240e-03  6.82872731e+00  4.55830000e-02  6.35920000e+03  3.02500000e-09  0.00000000e+00
1.51878990e-03  6.82732533e+00  4.56420000e-02  6.30440000e+03  3.24400000e-09  0.00000000e+00
1.53397780e-03  6.82587841e+00  4.57020000e-02  6.25010000e+03  3.47800000e-09  0.00000000e+00
1.54931760e-03  6.82438600e+00  4.57630000e-02  6.19650000e+03  3.72900000e-09  0.00000000e+00
1.56481070e-03  6.82284749e+00  4.58250000e-02  6.14350000e+03  3.99700000e-09  0.00000000e+00
1.58045890e-03  6.82126227e+00  4.58880000e-02  6.09100000e+03  4.28400000e-09  0.00000000e+00
1.59626340e-03  6.81962967e+00  4.59520000e-02  6.03910000e+03  4.59200000e-09  0.00000000e+00
1.61222610e-03  6.81794900e+00  4.60170000e-02  5.98770000e+03  4.92000000e-09  0.00000000e+00
1.62834830e-03  6.81621952e+00  4.60830000e-02  5.93700000e+03  5.27200000e-09  0.00000000e+00
1.64463180e-03  6.81444046e+00  4.61500000e-02  5.88680000e+03  5.64700000e-09  0.00000000e+00
1.66107810e-03  6.81261103e+00  4.62190000e-02  5.83710000e+03  6.04900000e-09  0.00000000e+00
1.67768890e-03  6.81073039e+00  4.62880000e-02  5.78800000e+03  6.47800000e-09  0.00000000e+00
1.69446580e-03  6.80886223e+00  4.63590000e-02  5.73940000e+03  6.93700000e-09  0.00000000e+00
1.71141050e-03  6.80687577e+00  4.64300000e-02  5.69140000e+03  7.42800000e-09  0.00000000e+00
1.72852460e-03  6.80483540e+00  4.65030000e-02  5.64390000e+03  7.95200000e-09  0.00000000e+00
1.74580980e-03  6.80274016e+00  4.65780000e-02  5.59690000e+03  8.51200000e-09  0.00000000e+00
1.76326790e-03  6.80058906e+00  4.66530000e-02  5.55050000e+03  9.11000000e-09  0.00000000e+00
1.78090060e-03  6.79838104e+00  4.67300000e-02  5.50460000e+03  9.74900000e-09  0.00000000e+00
1.79870960e-03  6.79611505e+00  4.68080000e-02  5.45920000e+03  1.04300000e-08  0.00000000e+00
1.81669670e-03  6.79378998e+00  4.68880000e-02  5.41430000e+03  1.11600000e-08  0.00000000e+00
1.83486370e-03  6.79140469e+00  4.69680000e-02  5.37000000e+03  1.19400000e-08  0.00000000e+00
1.85321230e-03  6.78895800e+00  4.70510000e-02  5.32610000e+03  1.27700000e-08  0.00000000e+00
1.87174440e-03  6.78644870e+00  4.71350000e-02  5.28280000e+03  1.36600000e-08  0.00000000e+00
1.89046190e-03  6.78387554e+00  4.72200000e-02  5.23990000e+03  1.46000000e-08  0.00000000e+00
1.90936650e-03  6.78123724e+00  4.73070000e-02  5.19760000e+03  1.56100000e-08  0.00000000e+00
1.92846020e-03  6.77853247e+00  4.73950000e-02  5.15580000e+03  1.66900000e-08  0.00000000e+00
1.94774480e-03  6.77575986e+00  4.74850000e-02  5.11440000e+03  1.78400000e-08  0.00000000e+00
1.96722220e-03  6.77291802e+00  4.75770000e-02  5.07350000e+03  1.90700000e-08  0.00000000e+00
1.98689440e-03  6.77000548e+00  4.76700000e-02  5.03320000e+03  2.03800000e-08  0.00000000e+00
2.00676340e-03  6.76702077e+00  4.77650000e-02  4.99330000e+03  2.17700000e-08  0.00000000e+00
2.02683100e-03  6.76396236e+00  4.78620000e-02  4.95390000e+03  2.32600000e-08  0.00000000e+00
2.04709930e-03  6.76082867e+00  4.79610000e-02  4.91490000e+03  2.48500000e-08  0.00000000e+00
2.06757030e-03  6.75761808e+00  4.80610000e-02  4.87650000e+03  2.65400000e-08  0.00000000e+00
2.08824600e-03  6.75432892e+00  4.81640000e-02  4.83850000e+03  2.83400000e-08  0.00000000e+00
2.10912850e-03  6.75095948e+00  4.82690000e-02  4.80100000e+03  3.02600000e-08  0.00000000e+00
2.13021980e-03  6.74750800e+00  4.83750000e-02  4.76390000e+03  3.23100000e-08  0.00000000e+00
2.15152200e-03  6.74397266e+00  4.84840000e-02  4.72740000e+03  3.44900000e-08  0.00000000e+00
2.17303720e-03  6.74035159e+00  4.85940000e-02  4.69130000e+03  3.68200000e-08  0.00000000e+00
2.19476750e-03  6.73664289e+00  4.87070000e-02  4.65560000e+03  3.92900000e-08  0.00000000e+00
2.21671520e-03  6.73284457e+00  4.88230000e-02  4.62040000e+03  4.19300000e-08  0.00000000e+00
2.23888240e-03  6.72895461e+00  4.89400000e-02  4.58570000e+03  4.47400000e-08  0.00000000e+00
2.26127120e-03  6.72497092e+00  4.90600000e-02  4.55140000e+03  4.77300000e-08  0.00000000e+00
2.28388390e-03  6.72089134e+00  4.91820000e-02  4.51760000e+03  5.09100000e-08  0.00000000e+00
2.30672270e-03  6.71671368e+00  4.93070000e-02  4.48420000e+03  5.43000000e-08  0.00000000e+00
2.32979000e-03  6.71243565e+00  4.94350000e-02  4.45130000e+03  5.79100000e-08  0.00000000e+00
2.35308790e-03  6.70805492e+00  4.95650000e-02  4.41880000e+03  6.17500000e-08  0.00000000e+00
2.37661870e-03  6.70356907e+00  4.96980000e-02  4.38680000e+03  6.58300000e-08  0.00000000e+00
2.40038490e-03  6.69897563e+00  4.98340000e-02  4.35520000e+03  7.01800000e-08  0.00000000e+00
2.42438880e-03  6.69427204e+00  4.99720000e-02  4.32410000e+03  7.48000000e-08  0.00000000e+00
2.44863270e-03  6.68945569e+00  5.01140000e-02  4.29340000e+03  7.97200000e-08  0.00000000e+00
2.47311900e-03  6.68452385e+00  5.02590000e-02  4.26320000e+03  8.49500000e-08  0.00000000e+00
2.49785020e-03  6.67947375e+00  5.04070000e-02  4.23340000e+03  9.05100000e-08  0.00000000e+00
2.52282870e-03  6.67430251e+00  5.05580000e-02  4.20410000e+03  9.64200000e-08  0.00000000e+00
2.54805700e-03  6.66900718e+00  5.07130000e-02  4.17520000e+03  1.02700000e-07  0.00000000e+00
2.57353760e-03  6.66358471e+00  5.08710000e-02  4.14680000e+03  1.09400000e-07  0.00000000e+00
2.59927290e-03  6.65803195e+00  5.10330000e-02  4.11880000e+03  1.16500000e-07  0.00000000e+00
2.62526570e-03  6.65234568e+00  5.11980000e-02  4.09120000e+03  1.24000000e-07  0.00000000e+00
2.65151830e-03  6.64652254e+00  5.13680000e-02  4.06410000e+03  1.32100000e-07  0.00000000e+00
2.67803350e-03  6.64055911e+00  5.15410000e-02  4.03750000e+03  1.40600000e-07  0.00000000e+00
2.70481380e-03  6.63445181e+00  5.17190000e-02  4.01130000e+03  1.49600000e-07  0.00000000e+00
2.73186200e-03  6.62819700e+00  5.19010000e-02  3.98550000e+03  1.59300000e-07  0.00000000e+00
2.75918060e-03  6.62179089e+00  5.20870000e-02  3.96020000e+03  1.69500000e-07  0.00000000e+00
2.78677240e-03  6.61522956e+00  5.22780000e-02  3.93540000e+03  1.80300000e-07  0.00000000e+00
2.81464010e-03  6.60850900e+00  5.24730000e-02  3.91100000e+03  1.91800000e-07  0.00000000e+00
2.84278650e-03  6.60162502e+00  5.26740000e-02  3.88710000e+03  2.04100000e-07  0.00000000e+00
2.87121440e-03  6.59457334e+00  5.28790000e-02  3.86360000e+03  2.17000000e-07  0.00000000e+00
2.89992650e-03  6.58734949e+00  5.30900000e-02  3.84060000e+03  2.30800000e-07  0.00000000e+00
2.92892580e-03  6.57994888e+00  5.33070000e-02  3.81810000e+03  2.45400000e-07  0.00000000e+00
2.95821510e-03  6.57236675e+00  5.35290000e-02  3.79600000e+03  2.60900000e-07  0.00000000e+00
2.98779720e-03  6.56459819e+00  5.37560000e-02  3.77440000e+03  2.77400000e-07  0.00000000e+00
3.01767520e-03  6.55663808e+00  5.39910000e-02  3.75330000e+03  2.94800000e-07  0.00000000e+00
3.04785190e-03  6.54848117e+00  5.42310000e-02  3.73270000e+03  3.13300000e-07  0.00000000e+00
3.07833040e-03  6.54012198e+00  5.44780000e-02  3.71260000e+03  3.33000000e-07  0.00000000e+00
3.10911370e-03  6.53155485e+00  5.47320000e-02  3.69290000e+03  3.53800000e-07  0.00000000e+00
3.14020490e-03  6.52277392e+00  5.49930000e-02  3.67380000e+03  3.75800000e-07  0.00000000e+00
3.17160690e-03  6.51377311e+00  5.52610000e-02  3.65520000e+03  3.99200000e-07  0.00000000e+00
3.20332300e-03  6.50454609e+00  5.55370000e-02  3.63710000e+03  4.24000000e-07  0.00000000e+00
3.23535620e-03  6.49508631e+00  5.58220000e-02  3.61950000e+03  4.50300000e-07  0.00000000e+00
3.26770980e-03  6.48538697e+00  5.61150000e-02  3.60250000e+03  4.78200000e-07  0.00000000e+00
3.30038690e-03  6.47544100e+00  5.64160000e-02  3.58600000e+03  5.07700000e-07  0.00000000e+00
3.33339080e-03  6.46524104e+00  5.67270000e-02  3.57000000e+03  5.38900000e-07  0.00000000e+00
3.36672470e-03  6.45477944e+00  5.70470000e-02  3.55470000e+03  5.72100000e-07  0.00000000e+00
3.40039190e-03  6.44404826e+00  5.73780000e-02  3.53990000e+03  6.07100000e-07  0.00000000e+00
3.43439580e-03  6.43303920e+00  5.77190000e-02  3.52560000e+03  6.44300000e-07  0.00000000e+00
3.46873980e-03  6.42174364e+00  5.80710000e-02  3.51200000e+03  6.83600000e-07  0.00000000e+00
3.50342720e-03  6.41015257e+00  5.84350000e-02  3.49900000e+03  7.25300000e-07  0.00000000e+00
3.53846150e-03  6.39825660e+00  5.88110000e-02  3.48670000e+03  7.69400000e-07  0.00000000e+00
3.57384610e-03  6.38604593e+00  5.91990000e-02  3.47500000e+03  8.16000000e-07  0.00000000e+00
3.60958450e-03  6.37351032e+00  5.96010000e-02  3.46390000e+03  8.65400000e-07  0.00000000e+00
3.64568040e-03  6.36063908e+00  6.00170000e-02  3.45360000e+03  9.17700000e-07  0.00000000e+00
3.68213720e-03  6.34742098e+00  6.04480000e-02  3.44390000e+03  9.73000000e-07  0.00000000e+00
3.71895860e-03  6.33384432e+00  6.08940000e-02  3.43500000e+03  1.03200000e-06  0.00000000e+00
3.75614810e-03  6.31989680e+00  6.13570000e-02  3.42680000e+03  1.09300000e-06  0.00000000e+00
3.79370960e-03  6.30556554e+00  6.18380000e-02  3.41950000e+03  1.15900000e-06  0.00000000e+00
3.83164670e-03  6.29083699e+00  6.23360000e-02  3.41290000e+03  1.22800000e-06  0.00000000e+00
3.86996320e-03  6.27569695e+00  6.28540000e-02  3.40720000e+03  1.30100000e-06  0.00000000e+00
3.90866280e-03  6.26013046e+00  6.33930000e-02  3.40240000e+03  1.37900000e-06  0.00000000e+00
3.94774950e-03  6.24412177e+00  6.39530000e-02  3.39850000e+03  1.46100000e-06  0.00000000e+00
3.98722690e-03  6.22765428e+00  6.45370000e-02  3.39550000e+03  1.54700000e-06  0.00000000e+00
4.02709920e-03  6.21071049e+00  6.51450000e-02  3.39360000e+03  1.63800000e-06  0.00000000e+00
4.06737020e-03  6.19327188e+00  6.57790000e-02  3.39270000e+03  1.73500000e-06  0.00000000e+00
4.10804390e-03  6.17531889e+00  6.64410000e-02  3.39290000e+03  1.83700000e-06  0.00000000e+00
4.14912440e-03  6.15683077e+00  6.71330000e-02  3.39430000e+03  1.94500000e-06  0.00000000e+00
4.19061560e-03  6.13778556e+00  6.78560000e-02  3.39690000e+03  2.05900000e-06  0.00000000e+00
4.23252170e-03  6.11815987e+00  6.86130000e-02  3.40080000e+03  2.17900000e-06  0.00000000e+00
4.27484700e-03  6.09792888e+00  6.94070000e-02  3.40610000e+03  2.30600000e-06  0.00000000e+00
4.31759540e-03  6.07706610e+00  7.02400000e-02  3.41280000e+03  2.44000000e-06  0.00000000e+00
4.36077140e-03  6.05554328e+00  7.11150000e-02  3.42110000e+03  2.58200000e-06  0.00000000e+00
4.40437910e-03  6.03333021e+00  7.20350000e-02  3.43110000e+03  2.73200000e-06  0.00000000e+00
4.44842290e-03  6.01039452e+00  7.30040000e-02  3.44280000e+03  2.89000000e-06  0.00000000e+00
4.49290710e-03  5.98670147e+00  7.40260000e-02  3.45640000e+03  3.05600000e-06  0.00000000e+00
4.53783620e-03  5.96221370e+00  7.51060000e-02  3.47210000e+03  3.23200000e-06  0.00000000e+00
4.58321460e-03  5.93689092e+00  7.62470000e-02  3.49000000e+03  3.41800000e-06  0.00000000e+00
4.62904670e-03  5.91068962e+00  7.74570000e-02  3.51030000e+03  3.61300000e-06  0.00000000e+00
4.67533720e-03  5.88356262e+00  7.87410000e-02  3.53310000e+03  3.82000000e-06  0.00000000e+00
4.72209050e-03  5.85545871e+00  8.01060000e-02  3.55880000e+03  4.03800000e-06  0.00000000e+00
4.76931140e-03  5.82632209e+00  8.15600000e-02  3.58750000e+03  4.26700000e-06  0.00000000e+00
4.81700460e-03  5.79613914e+00  8.31130000e-02  3.61960000e+03  4.51000000e-06  0.00000000e+00
4.86517460e-03  5.76474779e+00  8.47750000e-02  3.65540000e+03  4.76500000e-06  0.00000000e+00
4.91382640e-03  5.73212237e+00  8.65570000e-02  3.69530000e+03  5.03400000e-06  0.00000000e+00
4.96296460e-03  5.69818166e+00  8.84740000e-02  3.73970000e+03  5.31800000e-06  0.00000000e+00
5.01259430e-03  5.66283563e+00  9.05410000e-02  3.78920000e+03  5.61700000e-06  0.00000000e+00
5.06272020e-03  5.62598398e+00  9.27770000e-02  3.84440000e+03  5.93300000e-06  0.00000000e+00
5.11334740e-03  5.58751453e+00  9.52050000e-02  3.90590000e+03  6.26500000e-06  0.00000000e+00
5.16448090e-03  5.54730108e+00  9.78490000e-02  3.97470000e+03  6.61500000e-06  0.00000000e+00
5.21612570e-03  5.50520095e+00  1.00740000e-01  4.05160000e+03  6.98300000e-06  0.00000000e+00
5.26828690e-03  5.46105178e+00  1.03920000e-01  4.13800000e+03  7.37200000e-06  0.00000000e+00
5.32096980e-03  5.41466763e+00  1.07420000e-01  4.23520000e+03  7.78100000e-06  0.00000000e+00
5.37417950e-03  5.36583402e+00  1.11310000e-01  4.34510000e+03  8.21200000e-06  0.00000000e+00
5.42792130e-03  5.31430154e+00  1.15650000e-01  4.46980000e+03  8.66500000e-06  0.00000000e+00
5.48220050e-03  5.25977767e+00  1.20530000e-01  4.61210000e+03  9.14300000e-06  0.00000000e+00
5.53702250e-03  5.20191590e+00  1.26050000e-01  4.77560000e+03  9.64500000e-06  0.00000000e+00
5.59239280e-03  5.14030141e+00  1.32350000e-01  4.96460000e+03  1.01700000e-05  0.00000000e+00
5.64831670e-03  5.07443154e+00  1.39610000e-01  5.18520000e+03  1.07300000e-05  0.00000000e+00
5.70479980e-03  5.00368893e+00  1.48070000e-01  5.44500000e+03  1.13200000e-05  0.00000000e+00
5.76184780e-03  4.92730386e+00  1.58070000e-01  5.75500000e+03  1.19300000e-05  0.00000000e+00
5.81946630e-03  4.84430010e+00  1.70050000e-01  6.13010000e+03  1.25800000e-05  0.00000000e+00
5.87766100e-03  4.75341576e+00  1.84690000e-01  6.59200000e+03  1.32600000e-05  0.00000000e+00
5.93643760e-03  4.65298477e+00  2.02990000e-01  7.17330000e+03  1.39800000e-05  0.00000000e+00
5.99580200e-03  4.54075664e+00  2.26500000e-01  7.92470000e+03  1.47400000e-05  0.00000000e+00
6.05576000e-03  4.41362222e+00  2.57780000e-01  8.93010000e+03  1.55300000e-05  0.00000000e+00
6.11631760e-03  4.26721742e+00  3.01370000e-01  1.03370000e+04  1.63600000e-05  0.00000000e+00
6.17748080e-03  4.09549974e+00  3.65870000e-01  1.24250000e+04  1.72400000e-05  0.00000000e+00
6.23925560e-03  3.89126383e+00  4.69250000e-01  1.57780000e+04  1.81600000e-05  0.00000000e+00
6.30164810e-03  3.65403002e+00  6.51560000e-01  2.16900000e+04  1.91300000e-05  0.00000000e+00
6.36466460e-03  3.43795136e+00  9.87210000e-01  3.25390000e+04  2.01500000e-05  0.00000000e+00
6.39987180e-03  3.40325216e+00  1.24670000e+00  4.08660000e+04  2.07400000e-05  0.00000000e+00
6.40012780e-03  3.38733612e+00  1.24860000e+00  4.09260000e+04  2.07400000e-05  0.00000000e+00
6.42831130e-03  3.43641057e+00  1.44390000e+00  4.71210000e+04  2.12200000e-05  0.00000000e+00
6.49259440e-03  3.63778309e+00  1.77130000e+00  5.72320000e+04  2.23500000e-05  0.00000000e+00
6.55752030e-03  3.86104748e+00  1.93630000e+00  6.19440000e+04  2.35300000e-05  0.00000000e+00
6.62309550e-03  4.04332330e+00  2.01470000e+00  6.38160000e+04  2.47700000e-05  0.00000000e+00
6.68932650e-03  4.18459724e+00  2.05130000e+00  6.43290000e+04  2.60700000e-05  0.00000000e+00
6.75621970e-03  4.29308067e+00  2.06590000e+00  6.41460000e+04  2.74400000e-05  0.00000000e+00
6.82378190e-03  4.37552614e+00  2.06810000e+00  6.35800000e+04  2.88700000e-05  0.00000000e+00
6.89201980e-03  4.43656242e+00  2.06290000e+00  6.27930000e+04  3.03800000e-05  0.00000000e+00
