#  Po:    Z = 84;   Atomic weight = 209.0000 g/mol ;    nominal density:   [INLINE] = 9.3000E+00 g/cm3
#         a(barns/atom) = (cm2/g)    3.47053E+02
#         E(eV) (cm2/g) = f2(e/atom)    2.01341E+05
#         24 edges. Edge energies (keV):
#   24 edges. Edge energies (keV):
# K      9.31050E+01  L I    1.69393E+01  L II   1.62443E+01  L III  1.38138E+01
# M I    4.14940E+00  M II   3.85410E+00  M III  3.30190E+00  M IV   2.79800E+00
# M V    2.68300E+00  N I    9.95300E-01  N II   8.51000E-01  N III  7.05000E-01
# N IV   5.00200E-01  N V    4.73400E-01  N VI   1.75344E-01  N VII  1.69362E-01
# O I    1.70906E-01  O II   1.25695E-01  O III  9.83141E-02  O IV   3.14000E-02
# O V    3.14000E-02  P I    1.67777E-02  P II   7.55974E-03  P III  5.39477E-03
#         Relativistic correction estimate frel (H82,3/5CL) = -2.0248E+00, -1.1838E+00 e/atom
#         Nuclear Thomson correction fNT = -1.8520E-02 e/atom
#    _________________________________________________________________________________________________________
#  Form Factors, Attenuation and Scattering Cross-sections
#  Z=84, E = 0.001 - 1000 keV
#                                                             Attenuation
#    E         f1            f2                     [INLINE] (coh+inc) Coefficient    K       wavelength
#    keV       e/atom       e/atom      cm2/g       cm2/g      cm2/g          cm2/g        nm
1.01000000e-03  4.41452656e+00  5.06400000e-02  1.00950000e+04  8.71100000e-11  0.00000000e+00
1.02010000e-03  4.42319511e+00  5.06920000e-02  1.00050000e+04  9.40800000e-11  0.00000000e+00
1.03030100e-03  4.43047689e+00  5.07440000e-02  9.91640000e+03  1.01600000e-10  0.00000000e+00
1.04060400e-03  4.43362731e+00  5.07970000e-02  9.82840000e+03  1.09700000e-10  0.00000000e+00
1.05101010e-03  4.43577331e+00  5.08510000e-02  9.74140000e+03  1.18400000e-10  0.00000000e+00
1.06152020e-03  4.43740160e+00  5.09050000e-02  9.65530000e+03  1.27800000e-10  0.00000000e+00
1.07213540e-03  4.43865361e+00  5.09600000e-02  9.57010000e+03  1.38000000e-10  0.00000000e+00
1.08285670e-03  4.43982173e+00  5.10170000e-02  9.48580000e+03  1.48900000e-10  0.00000000e+00
1.09368530e-03  4.44051584e+00  5.10730000e-02  9.40230000e+03  1.60600000e-10  0.00000000e+00
1.10462210e-03  4.44119212e+00  5.11310000e-02  9.31980000e+03  1.73300000e-10  0.00000000e+00
1.11566830e-03  4.44173917e+00  5.11900000e-02  9.23800000e+03  1.86900000e-10  0.00000000e+00
1.12682500e-03  4.44207530e+00  5.12490000e-02  9.15720000e+03  2.01600000e-10  0.00000000e+00
1.13809330e-03  4.44212755e+00  5.13090000e-02  9.07720000e+03  2.17400000e-10  0.00000000e+00
1.14947420e-03  4.44208327e+00  5.13700000e-02  8.99800000e+03  2.34400000e-10  0.00000000e+00
1.16096900e-03  4.44195084e+00  5.14330000e-02  8.91970000e+03  2.52800000e-10  0.00000000e+00
1.17257860e-03  4.44173703e+00  5.14960000e-02  8.84220000e+03  2.72500000e-10  0.00000000e+00
1.18430440e-03  4.44144733e+00  5.15590000e-02  8.76550000e+03  2.93700000e-10  0.00000000e+00
1.19614750e-03  4.44108631e+00  5.16240000e-02  8.68970000e+03  3.16500000e-10  0.00000000e+00
1.20810900e-03  4.44065770e+00  5.16900000e-02  8.61460000e+03  3.41000000e-10  0.00000000e+00
1.22019000e-03  4.44016463e+00  5.17570000e-02  8.54030000e+03  3.67400000e-10  0.00000000e+00
1.23239190e-03  4.43960970e+00  5.18250000e-02  8.46690000e+03  3.95800000e-10  0.00000000e+00
1.24471590e-03  4.43899509e+00  5.18940000e-02  8.39420000e+03  4.26300000e-10  0.00000000e+00
1.25716300e-03  4.43832261e+00  5.19640000e-02  8.32230000e+03  4.59100000e-10  0.00000000e+00
1.26973460e-03  4.43759375e+00  5.20350000e-02  8.25110000e+03  4.94400000e-10  0.00000000e+00
1.28243200e-03  4.43680976e+00  5.21070000e-02  8.18070000e+03  5.32300000e-10  0.00000000e+00
1.29525630e-03  4.43597165e+00  5.21800000e-02  8.11110000e+03  5.73100000e-10  0.00000000e+00
1.30820890e-03  4.43508023e+00  5.22540000e-02  8.04230000e+03  6.16900000e-10  0.00000000e+00
1.32129100e-03  4.43413613e+00  5.23300000e-02  7.97420000e+03  6.63900000e-10  0.00000000e+00
1.33450390e-03  4.43313986e+00  5.24070000e-02  7.90680000e+03  7.14400000e-10  0.00000000e+00
1.34784890e-03  4.43209175e+00  5.24850000e-02  7.84010000e+03  7.68700000e-10  0.00000000e+00
1.36132740e-03  4.43099204e+00  5.25640000e-02  7.77420000e+03  8.27000000e-10  0.00000000e+00
1.37494070e-03  4.42984083e+00  5.26440000e-02  7.70900000e+03  8.89600000e-10  0.00000000e+00
1.38869010e-03  4.42875881e+00  5.27260000e-02  7.64450000e+03  9.56700000e-10  0.00000000e+00
1.40257700e-03  4.42749827e+00  5.28090000e-02  7.58080000e+03  1.02900000e-09  0.00000000e+00
1.41660280e-03  4.42618637e+00  5.28930000e-02  7.51770000e+03  1.10600000e-09  0.00000000e+00
1.43076880e-03  4.42491942e+00  5.29790000e-02  7.45530000e+03  1.18900000e-09  0.00000000e+00
1.44507650e-03  4.42350222e+00  5.30660000e-02  7.39370000e+03  1.27900000e-09  0.00000000e+00
1.45952720e-03  4.42203269e+00  5.31550000e-02  7.33270000e+03  1.37400000e-09  0.00000000e+00
1.47412250e-03  4.42051036e+00  5.32450000e-02  7.27240000e+03  1.47700000e-09  0.00000000e+00
1.48886370e-03  4.41904514e+00  5.33360000e-02  7.21280000e+03  1.58700000e-09  0.00000000e+00
1.50375240e-03  4.41741056e+00  5.34300000e-02  7.15380000e+03  1.70500000e-09  0.00000000e+00
1.51878990e-03  4.41572168e+00  5.35240000e-02  7.09550000e+03  1.83100000e-09  0.00000000e+00
1.53397780e-03  4.41397777e+00  5.36200000e-02  7.03790000e+03  1.96700000e-09  0.00000000e+00
1.54931760e-03  4.41221815e+00  5.37180000e-02  6.98100000e+03  2.11300000e-09  0.00000000e+00
1.56481070e-03  4.41036120e+00  5.38180000e-02  6.92470000e+03  2.26800000e-09  0.00000000e+00
1.58045890e-03  4.40849177e+00  5.39190000e-02  6.86900000e+03  2.43600000e-09  0.00000000e+00
1.59626340e-03  4.40651829e+00  5.40220000e-02  6.81400000e+03  2.61500000e-09  0.00000000e+00
1.61222610e-03  4.40448551e+00  5.41270000e-02  6.75960000e+03  2.80600000e-09  0.00000000e+00
1.62834830e-03  4.40239242e+00  5.42340000e-02  6.70590000e+03  3.01200000e-09  0.00000000e+00
1.64463180e-03  4.40023797e+00  5.43420000e-02  6.65280000e+03  3.23200000e-09  0.00000000e+00
1.66107810e-03  4.39802104e+00  5.44530000e-02  6.60030000e+03  3.46800000e-09  0.00000000e+00
1.67768890e-03  4.39574050e+00  5.45650000e-02  6.54840000e+03  3.72000000e-09  0.00000000e+00
1.69446580e-03  4.39339515e+00  5.46800000e-02  6.49720000e+03  3.99100000e-09  0.00000000e+00
1.71141050e-03  4.39098373e+00  5.47960000e-02  6.44660000e+03  4.28000000e-09  0.00000000e+00
1.72852460e-03  4.38850496e+00  5.49150000e-02  6.39660000e+03  4.59000000e-09  0.00000000e+00
1.74580980e-03  4.38595749e+00  5.50360000e-02  6.34720000e+03  4.92100000e-09  0.00000000e+00
1.76326790e-03  4.38333991e+00  5.51590000e-02  6.29840000e+03  5.27600000e-09  0.00000000e+00
1.78090060e-03  4.38065079e+00  5.52840000e-02  6.25020000e+03  5.65600000e-09  0.00000000e+00
1.79870960e-03  4.37795660e+00  5.54120000e-02  6.20260000e+03  6.06200000e-09  0.00000000e+00
1.81669670e-03  4.37511906e+00  5.55420000e-02  6.15560000e+03  6.49600000e-09  0.00000000e+00
1.83486370e-03  4.37220531e+00  5.56750000e-02  6.10920000e+03  6.96100000e-09  0.00000000e+00
1.85321230e-03  4.36921369e+00  5.58100000e-02  6.06340000e+03  7.45800000e-09  0.00000000e+00
1.87174440e-03  4.36614249e+00  5.59470000e-02  6.01820000e+03  7.98900000e-09  0.00000000e+00
1.89046190e-03  4.36298993e+00  5.60880000e-02  5.97360000e+03  8.55700000e-09  0.00000000e+00
1.90936650e-03  4.35975415e+00  5.62310000e-02  5.92950000e+03  9.16500000e-09  0.00000000e+00
1.92846020e-03  4.35643327e+00  5.63770000e-02  5.88600000e+03  9.81300000e-09  0.00000000e+00
1.94774480e-03  4.35302531e+00  5.65260000e-02  5.84310000e+03  1.05100000e-08  0.00000000e+00
1.96722220e-03  4.34952824e+00  5.66770000e-02  5.80080000e+03  1.12500000e-08  0.00000000e+00
1.98689440e-03  4.34593995e+00  5.68320000e-02  5.75910000e+03  1.20400000e-08  0.00000000e+00
2.00676340e-03  4.34225829e+00  5.69900000e-02  5.71790000e+03  1.28900000e-08  0.00000000e+00
2.02683100e-03  4.33848099e+00  5.71520000e-02  5.67730000e+03  1.37900000e-08  0.00000000e+00
2.04709930e-03  4.33460575e+00  5.73160000e-02  5.63730000e+03  1.47500000e-08  0.00000000e+00
2.06757030e-03  4.33063017e+00  5.74840000e-02  5.59780000e+03  1.57800000e-08  0.00000000e+00
2.08824600e-03  4.32655176e+00  5.76560000e-02  5.55900000e+03  1.68800000e-08  0.00000000e+00
2.10912850e-03  4.32236796e+00  5.78310000e-02  5.52060000e+03  1.80600000e-08  0.00000000e+00
2.13021980e-03  4.31807613e+00  5.80100000e-02  5.48290000e+03  1.93100000e-08  0.00000000e+00
2.15152200e-03  4.31367352e+00  5.81920000e-02  5.44570000e+03  2.06500000e-08  0.00000000e+00
2.17303720e-03  4.30915730e+00  5.83790000e-02  5.40910000e+03  2.20800000e-08  0.00000000e+00
2.19476750e-03  4.30452455e+00  5.85700000e-02  5.37300000e+03  2.36000000e-08  0.00000000e+00
2.21671520e-03  4.29977222e+00  5.87650000e-02  5.33760000e+03  2.52200000e-08  0.00000000e+00
2.23888240e-03  4.29489719e+00  5.89650000e-02  5.30260000e+03  2.69600000e-08  0.00000000e+00
2.26127120e-03  4.28989620e+00  5.91680000e-02  5.26830000e+03  2.88000000e-08  0.00000000e+00
2.28388390e-03  4.28476589e+00  5.93770000e-02  5.23450000e+03  3.07800000e-08  0.00000000e+00
2.30672270e-03  4.27950279e+00  5.95900000e-02  5.20130000e+03  3.28800000e-08  0.00000000e+00
2.32979000e-03  4.27410328e+00  5.98090000e-02  5.16870000e+03  3.51200000e-08  0.00000000e+00
2.35308790e-03  4.26856363e+00  6.00320000e-02  5.13660000e+03  3.75000000e-08  0.00000000e+00
2.37661870e-03  4.26287997e+00  6.02610000e-02  5.10520000e+03  4.00500000e-08  0.00000000e+00
2.40038490e-03  4.25704829e+00  6.04950000e-02  5.07430000e+03  4.27600000e-08  0.00000000e+00
2.42438880e-03  4.25106442e+00  6.07350000e-02  5.04390000e+03  4.56500000e-08  0.00000000e+00
2.44863270e-03  4.24492404e+00  6.09810000e-02  5.01420000e+03  4.87300000e-08  0.00000000e+00
2.47311900e-03  4.23862267e+00  6.12330000e-02  4.98510000e+03  5.20100000e-08  0.00000000e+00
2.49785020e-03  4.23215567e+00  6.14910000e-02  4.95650000e+03  5.55000000e-08  0.00000000e+00
2.52282870e-03  4.22551819e+00  6.17560000e-02  4.92860000e+03  5.92300000e-08  0.00000000e+00
2.54805700e-03  4.21870522e+00  6.20270000e-02  4.90120000e+03  6.31900000e-08  0.00000000e+00
2.57353760e-03  4.21171155e+00  6.23060000e-02  4.87450000e+03  6.74000000e-08  0.00000000e+00
2.59927290e-03  4.20453174e+00  6.25910000e-02  4.84840000e+03  7.18900000e-08  0.00000000e+00
2.62526570e-03  4.19716015e+00  6.28850000e-02  4.82290000e+03  7.66700000e-08  0.00000000e+00
2.65151830e-03  4.18959091e+00  6.31860000e-02  4.79800000e+03  8.17600000e-08  0.00000000e+00
2.67803350e-03  4.18181790e+00  6.34960000e-02  4.77380000e+03  8.71700000e-08  0.00000000e+00
2.70481380e-03  4.17383475e+00  6.38140000e-02  4.75020000e+03  9.29300000e-08  0.00000000e+00
2.73186200e-03  4.16563482e+00  6.41410000e-02  4.72720000e+03  9.90600000e-08  0.00000000e+00
2.75918060e-03  4.15721117e+00  6.44770000e-02  4.70500000e+03  1.05600000e-07  0.00000000e+00
2.78677240e-03  4.14855658e+00  6.48230000e-02  4.68340000e+03  1.12500000e-07  0.00000000e+00
2.81464010e-03  4.13966351e+00  6.51780000e-02  4.66240000e+03  1.19900000e-07  0.00000000e+00
2.84278650e-03  4.13052406e+00  6.55450000e-02  4.64220000e+03  1.27700000e-07  0.00000000e+00
2.87121440e-03  4.12112999e+00  6.59220000e-02  4.62270000e+03  1.36000000e-07  0.00000000e+00
2.89992650e-03  4.11147268e+00  6.63110000e-02  4.60390000e+03  1.44900000e-07  0.00000000e+00
2.92892580e-03  4.10154310e+00  6.67110000e-02  4.58590000e+03  1.54300000e-07  0.00000000e+00
2.95821510e-03  4.09133180e+00  6.71250000e-02  4.56860000e+03  1.64300000e-07  0.00000000e+00
2.98779720e-03  4.08082887e+00  6.75510000e-02  4.55210000e+03  1.74900000e-07  0.00000000e+00
3.01767520e-03  4.07002391e+00  6.79910000e-02  4.53640000e+03  1.86200000e-07  0.00000000e+00
3.04785190e-03  4.05890600e+00  6.84460000e-02  4.52150000e+03  1.98200000e-07  0.00000000e+00
3.07833040e-03  4.04746369e+00  6.89150000e-02  4.50750000e+03  2.11000000e-07  0.00000000e+00
3.10911370e-03  4.03568490e+00  6.94010000e-02  4.49430000e+03  2.24500000e-07  0.00000000e+00
3.14020490e-03  4.02355694e+00  6.99030000e-02  4.48200000e+03  2.38900000e-07  0.00000000e+00
3.17160690e-03  4.01106645e+00  7.04230000e-02  4.47060000e+03  2.54100000e-07  0.00000000e+00
3.20332300e-03  3.99819932e+00  7.09620000e-02  4.46020000e+03  2.70300000e-07  0.00000000e+00
3.23535620e-03  3.98494067e+00  7.15200000e-02  4.45080000e+03  2.87500000e-07  0.00000000e+00
3.26770980e-03  3.97127478e+00  7.20980000e-02  4.44240000e+03  3.05700000e-07  0.00000000e+00
3.30038690e-03  3.95718502e+00  7.26990000e-02  4.43500000e+03  3.25100000e-07  0.00000000e+00
3.33339080e-03  3.94265377e+00  7.33220000e-02  4.42880000e+03  3.45600000e-07  0.00000000e+00
3.36672470e-03  3.92766237e+00  7.39700000e-02  4.42370000e+03  3.67400000e-07  0.00000000e+00
3.40039190e-03  3.91219100e+00  7.46440000e-02  4.41980000e+03  3.90600000e-07  0.00000000e+00
3.43439580e-03  3.89621860e+00  7.53460000e-02  4.41720000e+03  4.15100000e-07  0.00000000e+00
3.46873980e-03  3.87972275e+00  7.60770000e-02  4.41590000e+03  4.41100000e-07  0.00000000e+00
3.50342720e-03  3.86267959e+00  7.68390000e-02  4.41590000e+03  4.68600000e-07  0.00000000e+00
3.53846150e-03  3.84506361e+00  7.76350000e-02  4.41750000e+03  4.97900000e-07  0.00000000e+00
3.57384610e-03  3.82684758e+00  7.84660000e-02  4.42060000e+03  5.28900000e-07  0.00000000e+00
3.60958450e-03  3.80800232e+00  7.93350000e-02  4.42530000e+03  5.61700000e-07  0.00000000e+00
3.64568040e-03  3.78849655e+00  8.02450000e-02  4.43170000e+03  5.96500000e-07  0.00000000e+00
3.68213720e-03  3.76829668e+00  8.11990000e-02  4.44000000e+03  6.33400000e-07  0.00000000e+00
3.71895860e-03  3.74736654e+00  8.22010000e-02  4.45030000e+03  6.72500000e-07  0.00000000e+00
3.75614810e-03  3.72566711e+00  8.32530000e-02  4.46260000e+03  7.13900000e-07  0.00000000e+00
3.79370960e-03  3.70315626e+00  8.43600000e-02  4.47720000e+03  7.57700000e-07  0.00000000e+00
3.83164670e-03  3.67978831e+00  8.55260000e-02  4.49410000e+03  8.04200000e-07  0.00000000e+00
3.86996320e-03  3.65551370e+00  8.67580000e-02  4.51370000e+03  8.53400000e-07  0.00000000e+00
3.90866280e-03  3.63027850e+00  8.80590000e-02  4.53610000e+03  9.05500000e-07  0.00000000e+00
3.94774950e-03  3.60402385e+00  8.94370000e-02  4.56140000e+03  9.60600000e-07  0.00000000e+00
3.98722690e-03  3.57668532e+00  9.08990000e-02  4.59010000e+03  1.01900000e-06  0.00000000e+00
4.02709920e-03  3.54819226e+00  9.24530000e-02  4.62240000e+03  1.08100000e-06  0.00000000e+00
4.06737020e-03  3.51846682e+00  9.41090000e-02  4.65850000e+03  1.14600000e-06  0.00000000e+00
4.10804390e-03  3.48742305e+00  9.58760000e-02  4.69900000e+03  1.21500000e-06  0.00000000e+00
4.14912440e-03  3.45496563e+00  9.77680000e-02  4.74430000e+03  1.28800000e-06  0.00000000e+00
4.19061560e-03  3.42098847e+00  9.97980000e-02  4.79490000e+03  1.36600000e-06  0.00000000e+00
4.23252170e-03  3.38537299e+00  1.01980000e-01  4.85130000e+03  1.44800000e-06  0.00000000e+00
4.27484700e-03  3.34798606e+00  1.04340000e-01  4.91440000e+03  1.53400000e-06  0.00000000e+00
4.31759540e-03  3.30867746e+00  1.06900000e-01  4.98490000e+03  1.62600000e-06  0.00000000e+00
4.36077140e-03  3.26727680e+00  1.09670000e-01  5.06370000e+03  1.72300000e-06  0.00000000e+00
4.40437910e-03  3.22358970e+00  1.12710000e-01  5.15220000e+03  1.82500000e-06  0.00000000e+00
4.44842290e-03  3.17739299e+00  1.16030000e-01  5.25160000e+03  1.93400000e-06  0.00000000e+00
4.49290710e-03  3.12842871e+00  1.19690000e-01  5.36380000e+03  2.04800000e-06  0.00000000e+00
4.53783620e-03  3.07639636e+00  1.23750000e-01  5.49080000e+03  2.16900000e-06  0.00000000e+00
4.58321460e-03  3.02094301e+00  1.28280000e-01  5.63520000e+03  2.29700000e-06  0.00000000e+00
4.62904670e-03  2.96165024e+00  1.33350000e-01  5.80030000e+03  2.43200000e-06  0.00000000e+00
4.67533720e-03  2.89801682e+00  1.39100000e-01  5.99030000e+03  2.57400000e-06  0.00000000e+00
4.72209050e-03  2.82943530e+00  1.45660000e-01  6.21060000e+03  2.72500000e-06  0.00000000e+00
4.76931140e-03  2.75515976e+00  1.53220000e-01  6.46840000e+03  2.88400000e-06  0.00000000e+00
4.81700460e-03  2.67426049e+00  1.62050000e-01  6.77330000e+03  3.05200000e-06  0.00000000e+00
4.86517460e-03  2.58555862e+00  1.72490000e-01  7.13850000e+03  3.22900000e-06  0.00000000e+00
4.91382640e-03  2.48752955e+00  1.85060000e-01  7.58270000e+03  3.41600000e-06  0.00000000e+00
4.96296460e-03  2.37815554e+00  2.00490000e-01  8.13360000e+03  3.61400000e-06  0.00000000e+00
5.01259430e-03  2.25469276e+00  2.19910000e-01  8.83300000e+03  3.82300000e-06  0.00000000e+00
5.06272020e-03  2.11328836e+00  2.45110000e-01  9.74800000e+03  4.04300000e-06  0.00000000e+00
5.11334740e-03  1.94832302e+00  2.79190000e-01  1.09930000e+04  4.27500000e-06  0.00000000e+00
5.16448090e-03  1.75123341e+00  3.27800000e-01  1.27800000e+04  4.52000000e-06  0.00000000e+00
5.21612570e-03  1.50836559e+00  4.02610000e-01  1.55410000e+04  4.77900000e-06  0.00000000e+00
5.26828690e-03  1.19756394e+00  5.31190000e-01  2.03010000e+04  5.05200000e-06  0.00000000e+00
5.32096980e-03  7.90679301e-01  7.91580000e-01  2.99530000e+04  5.33900000e-06  0.00000000e+00
5.37417950e-03  3.66637983e-01  1.40810000e+00  5.27520000e+04  5.64300000e-06  0.00000000e+00
5.39470810e-03  2.84956795e-01  1.77790000e+00  6.63550000e+04  5.76300000e-06  0.00000000e+00
5.39483430e-03  3.60888674e-01  1.78020000e+00  6.64400000e+04  5.76400000e-06  0.00000000e+00
5.42792130e-03  5.09914838e-01  2.31350000e+00  8.58150000e+04  5.96200000e-06  0.00000000e+00
5.48220050e-03  1.02499809e+00  2.77480000e+00  1.01910000e+05  6.30000000e-06  0.00000000e+00
5.53702250e-03  1.45331398e+00  2.94550000e+00  1.07100000e+05  6.65500000e-06  0.00000000e+00
5.59239280e-03  1.77780644e+00  3.01050000e+00  1.08390000e+05  7.03000000e-06  0.00000000e+00
5.64831670e-03  2.03065355e+00  3.03100000e+00  1.08040000e+05  7.42400000e-06  0.00000000e+00
5.70479980e-03  2.23367004e+00  3.02950000e+00  1.06920000e+05  7.84100000e-06  0.00000000e+00
5.76184780e-03  2.40022170e+00  3.01590000e+00  1.05390000e+05  8.27900000e-06  0.00000000e+00
5.81946630e-03  2.53874681e+00  2.99500000e+00  1.03620000e+05  8.74100000e-06  0.00000000e+00
5.87766100e-03  2.65477286e+00  2.96960000e+00  1.01720000e+05  9.22700000e-06  0.00000000e+00
5.93643760e-03  2.75197270e+00  2.94150000e+00  9.97640000e+04  9.73900000e-06  0.00000000e+00
5.99580200e-03  2.83285503e+00  2.91190000e+00  9.77810000e+04  1.02800000e-05  0.00000000e+00
6.05576000e-03  2.89986482e+00  2.88220000e+00  9.58290000e+04  1.08500000e-05  0.00000000e+00
6.11631760e-03  2.95488113e+00  2.85300000e+00  9.39170000e+04  1.14400000e-05  0.00000000e+00
6.17748080e-03  2.99922276e+00  2.82440000e+00  9.20540000e+04  1.20700000e-05  0.00000000e+00
6.23925560e-03  3.03383457e+00  2.79650000e+00  9.02450000e+04  1.27400000e-05  0.00000000e+00
6.30164810e-03  3.05938067e+00  2.76960000e+00  8.84900000e+04  1.34300000e-05  0.00000000e+00
6.36466460e-03  3.07629727e+00  2.74370000e+00  8.67940000e+04  1.41700000e-05  0.00000000e+00
6.42831130e-03  3.08482263e+00  2.71880000e+00  8.51560000e+04  1.49400000e-05  0.00000000e+00
6.49259440e-03  3.08501095e+00  2.69510000e+00  8.35780000e+04  1.57500000e-05  0.00000000e+00
6.55752030e-03  3.07673300e+00  2.67260000e+00  8.20600000e+04  1.66100000e-05  0.00000000e+00
6.62309550e-03  3.05966381e+00  2.65150000e+00  8.06050000e+04  1.75000000e-05  0.00000000e+00
6.68932650e-03  3.03325541e+00  2.63180000e+00  7.92150000e+04  1.84500000e-05  0.00000000e+00
6.75621970e-03  2.99669034e+00  2.61380000e+00  7.78940000e+04  1.94400000e-05  0.00000000e+00
6.82378190e-03  2.94880752e+00  2.59770000e+00  7.66480000e+04  2.04900000e-05  0.00000000e+00
