#  Rn:    Z = 86;   Atomic weight = 222.0000 g/mol ;    nominal density:   [INLINE] = 9.2300E-04 g/cm3
#         a(barns/atom) = (cm2/g)    3.68640E+02
#         E(eV) (cm2/g) = f2(e/atom)    1.89551E+05
#         24 edges. Edge energies (keV):
# K      9.84040E+01  L I    1.80490E+01  L II   1.73371E+01  L III  1.46194E+01
# M I    4.48200E+00  M II   4.15900E+00  M III  3.53800E+00  M IV   3.02150E+00
# M V    2.89240E+00  N I    1.09700E+00  N II   9.29000E-01  N III  7.68000E-01
# N IV   5.66600E-01  N V    5.37000E-01  N VI   2.19631E-01  N VII  2.12588E-01
# O I    2.00831E-01  O II   1.51771E-01  O III  1.18817E-01  O IV   4.86911E-02
# O V    4.42550E-02  P I    2.19397E-02  P II   1.05726E-02  P III  7.12588E-03
#         Relativistic correction estimate frel (H82,3/5CL) = -2.1548E+00, -1.2570E+00 e/atom
#         Nuclear Thomson correction fNT = -1.8276E-02 e/atom
#    _________________________________________________________________________________________________________
#  Form Factors, Attenuation and Scattering Cross-sections
#  Z=86, E = 0.001 - 1000 keV
#                                                             Attenuation
#    E         f1            f2                     [INLINE] (coh+inc) Coefficient    K       wavelength
#    keV       e/atom       e/atom      cm2/g       cm2/g      cm2/g          cm2/g        nm
1.01000000e-03  9.50862235e+00  5.14690000e-02  9.65950000e+03  5.35900000e-11  0.00000000e+00
1.02010000e-03  9.51796106e+00  5.15120000e-02  9.57180000e+03  5.79600000e-11  0.00000000e+00
1.03030100e-03  9.52378724e+00  5.15560000e-02  9.48510000e+03  6.26700000e-11  0.00000000e+00
1.04060400e-03  9.52805871e+00  5.16000000e-02  9.39920000e+03  6.77600000e-11  0.00000000e+00
1.05101010e-03  9.53042337e+00  5.16450000e-02  9.31420000e+03  7.32500000e-11  0.00000000e+00
1.06152020e-03  9.53223399e+00  5.16900000e-02  9.23000000e+03  7.91800000e-11  0.00000000e+00
1.07213540e-03  9.53364155e+00  5.17360000e-02  9.14680000e+03  8.55700000e-11  0.00000000e+00
1.08285670e-03  9.53492051e+00  5.17820000e-02  9.06430000e+03  9.24700000e-11  0.00000000e+00
1.09368530e-03  9.53583246e+00  5.18290000e-02  8.98270000e+03  9.99100000e-11  0.00000000e+00
1.10462210e-03  9.53643921e+00  5.18770000e-02  8.90200000e+03  1.07900000e-10  0.00000000e+00
1.11566830e-03  9.53731797e+00  5.19250000e-02  8.82210000e+03  1.16600000e-10  0.00000000e+00
1.12682500e-03  9.53756376e+00  5.19740000e-02  8.74300000e+03  1.25900000e-10  0.00000000e+00
1.13809330e-03  9.53784733e+00  5.20240000e-02  8.66470000e+03  1.36000000e-10  0.00000000e+00
1.14947420e-03  9.53785803e+00  5.20740000e-02  8.58720000e+03  1.46800000e-10  0.00000000e+00
1.16096900e-03  9.53777604e+00  5.21250000e-02  8.51050000e+03  1.58500000e-10  0.00000000e+00
1.17257860e-03  9.53760858e+00  5.21770000e-02  8.43460000e+03  1.71100000e-10  0.00000000e+00
1.18430440e-03  9.53736156e+00  5.22300000e-02  8.35950000e+03  1.84600000e-10  0.00000000e+00
1.19614750e-03  9.53703983e+00  5.22830000e-02  8.28510000e+03  1.99200000e-10  0.00000000e+00
1.20810900e-03  9.53664742e+00  5.23370000e-02  8.21160000e+03  2.14900000e-10  0.00000000e+00
1.22019000e-03  9.53618771e+00  5.23910000e-02  8.13870000e+03  2.31900000e-10  0.00000000e+00
1.23239190e-03  9.53566352e+00  5.24470000e-02  8.06670000e+03  2.50100000e-10  0.00000000e+00
1.24471590e-03  9.53507719e+00  5.25030000e-02  7.99540000e+03  2.69800000e-10  0.00000000e+00
1.25716300e-03  9.53443072e+00  5.25600000e-02  7.92480000e+03  2.90900000e-10  0.00000000e+00
1.26973460e-03  9.53372576e+00  5.26170000e-02  7.85490000e+03  3.13700000e-10  0.00000000e+00
1.28243200e-03  9.53296369e+00  5.26760000e-02  7.78580000e+03  3.38100000e-10  0.00000000e+00
1.29525630e-03  9.53214565e+00  5.27350000e-02  7.71740000e+03  3.64500000e-10  0.00000000e+00
1.30820890e-03  9.53127256e+00  5.27960000e-02  7.64970000e+03  3.92800000e-10  0.00000000e+00
1.32129100e-03  9.53034518e+00  5.28570000e-02  7.58280000e+03  4.23300000e-10  0.00000000e+00
1.33450390e-03  9.52936411e+00  5.29190000e-02  7.51650000e+03  4.56100000e-10  0.00000000e+00
1.34784890e-03  9.52832978e+00  5.29810000e-02  7.45090000e+03  4.91400000e-10  0.00000000e+00
1.36132740e-03  9.52724251e+00  5.30450000e-02  7.38600000e+03  5.29300000e-10  0.00000000e+00
1.37494070e-03  9.52610252e+00  5.31100000e-02  7.32180000e+03  5.70100000e-10  0.00000000e+00
1.38869010e-03  9.52490989e+00  5.31750000e-02  7.25820000e+03  6.13900000e-10  0.00000000e+00
1.40257700e-03  9.52366464e+00  5.32420000e-02  7.19530000e+03  6.61000000e-10  0.00000000e+00
1.41660280e-03  9.52236668e+00  5.33090000e-02  7.13310000e+03  7.11600000e-10  0.00000000e+00
1.43076880e-03  9.52112720e+00  5.33780000e-02  7.07160000e+03  7.66000000e-10  0.00000000e+00
1.44507650e-03  9.51971775e+00  5.34470000e-02  7.01070000e+03  8.24500000e-10  0.00000000e+00
1.45952720e-03  9.51825518e+00  5.35180000e-02  6.95040000e+03  8.87300000e-10  0.00000000e+00
1.47412250e-03  9.51683320e+00  5.35890000e-02  6.89080000e+03  9.54700000e-10  0.00000000e+00
1.48886370e-03  9.51526152e+00  5.36620000e-02  6.83180000e+03  1.02700000e-09  0.00000000e+00
1.50375240e-03  9.51363538e+00  5.37350000e-02  6.77350000e+03  1.10500000e-09  0.00000000e+00
1.51878990e-03  9.51195424e+00  5.38100000e-02  6.71570000e+03  1.18800000e-09  0.00000000e+00
1.53397780e-03  9.51032445e+00  5.38860000e-02  6.65860000e+03  1.27800000e-09  0.00000000e+00
1.54931760e-03  9.50852674e+00  5.39630000e-02  6.60210000e+03  1.37400000e-09  0.00000000e+00
1.56481070e-03  9.50667223e+00  5.40410000e-02  6.54620000e+03  1.47700000e-09  0.00000000e+00
1.58045890e-03  9.50476014e+00  5.41210000e-02  6.49090000e+03  1.58800000e-09  0.00000000e+00
1.59626340e-03  9.50282906e+00  5.42010000e-02  6.43620000e+03  1.70700000e-09  0.00000000e+00
1.61222610e-03  9.50079867e+00  5.42830000e-02  6.38210000e+03  1.83400000e-09  0.00000000e+00
1.62834830e-03  9.49875038e+00  5.43660000e-02  6.32860000e+03  1.97100000e-09  0.00000000e+00
1.64463180e-03  9.49659802e+00  5.44510000e-02  6.27570000e+03  2.11800000e-09  0.00000000e+00
1.66107810e-03  9.49438354e+00  5.45370000e-02  6.22330000e+03  2.27500000e-09  0.00000000e+00
1.67768890e-03  9.49210589e+00  5.46240000e-02  6.17160000e+03  2.44400000e-09  0.00000000e+00
1.69446580e-03  9.48976398e+00  5.47120000e-02  6.12030000e+03  2.62400000e-09  0.00000000e+00
1.71141050e-03  9.48735669e+00  5.48020000e-02  6.06970000e+03  2.81800000e-09  0.00000000e+00
1.72852460e-03  9.48488283e+00  5.48930000e-02  6.01960000e+03  3.02600000e-09  0.00000000e+00
1.74580980e-03  9.48234119e+00  5.49860000e-02  5.97010000e+03  3.24800000e-09  0.00000000e+00
1.76326790e-03  9.47973050e+00  5.50800000e-02  5.92110000e+03  3.48600000e-09  0.00000000e+00
1.78090060e-03  9.47704946e+00  5.51760000e-02  5.87270000e+03  3.74100000e-09  0.00000000e+00
1.79870960e-03  9.47429671e+00  5.52730000e-02  5.82480000e+03  4.01500000e-09  0.00000000e+00
1.81669670e-03  9.47147085e+00  5.53720000e-02  5.77740000e+03  4.30800000e-09  0.00000000e+00
1.83486370e-03  9.46857044e+00  5.54720000e-02  5.73060000e+03  4.62100000e-09  0.00000000e+00
1.85321230e-03  9.46559398e+00  5.55750000e-02  5.68430000e+03  4.95700000e-09  0.00000000e+00
1.87174440e-03  9.46260869e+00  5.56780000e-02  5.63850000e+03  5.31600000e-09  0.00000000e+00
1.89046190e-03  9.45947469e+00  5.57840000e-02  5.59330000e+03  5.70100000e-09  0.00000000e+00
1.90936650e-03  9.45625988e+00  5.58910000e-02  5.54860000e+03  6.11300000e-09  0.00000000e+00
1.92846020e-03  9.45296256e+00  5.60000000e-02  5.50440000e+03  6.55300000e-09  0.00000000e+00
1.94774480e-03  9.44958100e+00  5.61110000e-02  5.46070000e+03  7.02400000e-09  0.00000000e+00
1.96722220e-03  9.44611340e+00  5.62240000e-02  5.41750000e+03  7.52800000e-09  0.00000000e+00
1.98689440e-03  9.44255791e+00  5.63390000e-02  5.37480000e+03  8.06800000e-09  0.00000000e+00
2.00676340e-03  9.43891262e+00  5.64560000e-02  5.33260000e+03  8.64400000e-09  0.00000000e+00
2.02683100e-03  9.43517557e+00  5.65750000e-02  5.29090000e+03  9.26100000e-09  0.00000000e+00
2.04709930e-03  9.43134474e+00  5.66950000e-02  5.24970000e+03  9.92000000e-09  0.00000000e+00
2.06757030e-03  9.42741804e+00  5.68180000e-02  5.20900000e+03  1.06300000e-08  0.00000000e+00
2.08824600e-03  9.42339333e+00  5.69440000e-02  5.16880000e+03  1.13800000e-08  0.00000000e+00
2.10912850e-03  9.41926840e+00  5.70710000e-02  5.12910000e+03  1.21800000e-08  0.00000000e+00
2.13021980e-03  9.41504097e+00  5.72010000e-02  5.08980000e+03  1.30400000e-08  0.00000000e+00
2.15152200e-03  9.41070871e+00  5.73330000e-02  5.05100000e+03  1.39600000e-08  0.00000000e+00
2.17303720e-03  9.40626919e+00  5.74670000e-02  5.01280000e+03  1.49500000e-08  0.00000000e+00
2.19476750e-03  9.40171994e+00  5.76040000e-02  4.97490000e+03  1.59900000e-08  0.00000000e+00
2.21671520e-03  9.39705839e+00  5.77430000e-02  4.93760000e+03  1.71200000e-08  0.00000000e+00
2.23888240e-03  9.39228192e+00  5.78850000e-02  4.90070000e+03  1.83100000e-08  0.00000000e+00
2.26127120e-03  9.38738780e+00  5.80290000e-02  4.86430000e+03  1.95900000e-08  0.00000000e+00
2.28388390e-03  9.38237324e+00  5.81770000e-02  4.82840000e+03  2.09500000e-08  0.00000000e+00
2.30672270e-03  9.37723537e+00  5.83270000e-02  4.79290000e+03  2.24100000e-08  0.00000000e+00
2.32979000e-03  9.37197121e+00  5.84790000e-02  4.75790000e+03  2.39600000e-08  0.00000000e+00
2.35308790e-03  9.36657770e+00  5.86350000e-02  4.72330000e+03  2.56200000e-08  0.00000000e+00
2.37661870e-03  9.36105170e+00  5.87940000e-02  4.68920000e+03  2.73900000e-08  0.00000000e+00
2.40038490e-03  9.35538996e+00  5.89560000e-02  4.65550000e+03  2.92800000e-08  0.00000000e+00
2.42438880e-03  9.34958913e+00  5.91210000e-02  4.62230000e+03  3.12900000e-08  0.00000000e+00
2.44863270e-03  9.34364575e+00  5.92890000e-02  4.58960000e+03  3.34400000e-08  0.00000000e+00
2.47311900e-03  9.33755628e+00  5.94600000e-02  4.55730000e+03  3.57300000e-08  0.00000000e+00
2.49785020e-03  9.33131703e+00  5.96350000e-02  4.52550000e+03  3.81700000e-08  0.00000000e+00
2.52282870e-03  9.32492423e+00  5.98140000e-02  4.49410000e+03  4.07700000e-08  0.00000000e+00
2.54805700e-03  9.31837397e+00  5.99960000e-02  4.46310000e+03  4.35500000e-08  0.00000000e+00
2.57353760e-03  9.31166222e+00  6.01810000e-02  4.43260000e+03  4.65100000e-08  0.00000000e+00
2.59927290e-03  9.30478482e+00  6.03710000e-02  4.40250000e+03  4.96600000e-08  0.00000000e+00
2.62526570e-03  9.29773748e+00  6.05650000e-02  4.37290000e+03  5.30200000e-08  0.00000000e+00
2.65151830e-03  9.29051576e+00  6.07620000e-02  4.34370000e+03  5.65900000e-08  0.00000000e+00
2.67803350e-03  9.28311509e+00  6.09640000e-02  4.31500000e+03  6.04100000e-08  0.00000000e+00
2.70481380e-03  9.27553074e+00  6.11700000e-02  4.28670000e+03  6.44700000e-08  0.00000000e+00
2.73186200e-03  9.26775781e+00  6.13800000e-02  4.25890000e+03  6.87900000e-08  0.00000000e+00
2.75918060e-03  9.25979127e+00  6.15950000e-02  4.23150000e+03  7.33900000e-08  0.00000000e+00
2.78677240e-03  9.25162588e+00  6.18150000e-02  4.20460000e+03  7.83000000e-08  0.00000000e+00
2.81464010e-03  9.24325625e+00  6.20400000e-02  4.17800000e+03  8.35200000e-08  0.00000000e+00
2.84278650e-03  9.23467681e+00  6.22690000e-02  4.15200000e+03  8.90700000e-08  0.00000000e+00
2.87121440e-03  9.22588176e+00  6.25040000e-02  4.12640000e+03  9.49800000e-08  0.00000000e+00
2.89992650e-03  9.21686513e+00  6.27440000e-02  4.10120000e+03  1.01300000e-07  0.00000000e+00
2.92892580e-03  9.20762073e+00  6.29900000e-02  4.07650000e+03  1.08000000e-07  0.00000000e+00
2.95821510e-03  9.19814216e+00  6.32410000e-02  4.05220000e+03  1.15100000e-07  0.00000000e+00
2.98779720e-03  9.18842276e+00  6.34980000e-02  4.02840000e+03  1.22700000e-07  0.00000000e+00
3.01767520e-03  9.17845567e+00  6.37610000e-02  4.00510000e+03  1.30700000e-07  0.00000000e+00
3.04785190e-03  9.16823374e+00  6.40310000e-02  3.98220000e+03  1.39300000e-07  0.00000000e+00
3.07833040e-03  9.15774958e+00  6.43060000e-02  3.95970000e+03  1.48400000e-07  0.00000000e+00
3.10911370e-03  9.14699552e+00  6.45890000e-02  3.93780000e+03  1.58100000e-07  0.00000000e+00
3.14020490e-03  9.13596360e+00  6.48790000e-02  3.91620000e+03  1.68400000e-07  0.00000000e+00
3.17160690e-03  9.12464555e+00  6.51750000e-02  3.89520000e+03  1.79300000e-07  0.00000000e+00
3.20332300e-03  9.11303278e+00  6.54790000e-02  3.87460000e+03  1.90900000e-07  0.00000000e+00
3.23535620e-03  9.10111638e+00  6.57910000e-02  3.85450000e+03  2.03300000e-07  0.00000000e+00
3.26770980e-03  9.08888707e+00  6.61110000e-02  3.83490000e+03  2.16400000e-07  0.00000000e+00
3.30038690e-03  9.07633522e+00  6.64400000e-02  3.81580000e+03  2.30400000e-07  0.00000000e+00
3.33339080e-03  9.06345080e+00  6.67760000e-02  3.79720000e+03  2.45200000e-07  0.00000000e+00
3.36672470e-03  9.05022336e+00  6.71220000e-02  3.77910000e+03  2.60900000e-07  0.00000000e+00
3.40039190e-03  9.03664205e+00  6.74770000e-02  3.76140000e+03  2.77600000e-07  0.00000000e+00
3.43439580e-03  9.02269553e+00  6.78420000e-02  3.74430000e+03  2.95300000e-07  0.00000000e+00
3.46873980e-03  9.00837201e+00  6.82170000e-02  3.72770000e+03  3.14200000e-07  0.00000000e+00
3.50342720e-03  8.99365917e+00  6.86020000e-02  3.71170000e+03  3.34100000e-07  0.00000000e+00
3.53846150e-03  8.97854417e+00  6.89980000e-02  3.69620000e+03  3.55300000e-07  0.00000000e+00
3.57384610e-03  8.96301361e+00  6.94060000e-02  3.68120000e+03  3.77800000e-07  0.00000000e+00
3.60958450e-03  8.94705348e+00  6.98250000e-02  3.66680000e+03  4.01700000e-07  0.00000000e+00
3.64568040e-03  8.93064914e+00  7.02570000e-02  3.65290000e+03  4.27000000e-07  0.00000000e+00
3.68213720e-03  8.91378528e+00  7.07020000e-02  3.63960000e+03  4.53900000e-07  0.00000000e+00
3.71895860e-03  8.89644588e+00  7.11600000e-02  3.62690000e+03  4.82400000e-07  0.00000000e+00
3.75614810e-03  8.87861417e+00  7.16320000e-02  3.61480000e+03  5.12600000e-07  0.00000000e+00
3.79370960e-03  8.86027255e+00  7.21190000e-02  3.60340000e+03  5.44700000e-07  0.00000000e+00
3.83164670e-03  8.84140261e+00  7.26210000e-02  3.59250000e+03  5.78600000e-07  0.00000000e+00
3.86996320e-03  8.82198498e+00  7.31390000e-02  3.58240000e+03  6.14700000e-07  0.00000000e+00
3.90866280e-03  8.80199938e+00  7.36750000e-02  3.57290000e+03  6.52800000e-07  0.00000000e+00
3.94774950e-03  8.78142443e+00  7.42280000e-02  3.56400000e+03  6.93300000e-07  0.00000000e+00
3.98722690e-03  8.76023770e+00  7.47990000e-02  3.55590000e+03  7.36100000e-07  0.00000000e+00
4.02709920e-03  8.73841555e+00  7.53900000e-02  3.54850000e+03  7.81500000e-07  0.00000000e+00
4.06737020e-03  8.71593309e+00  7.60020000e-02  3.54190000e+03  8.29600000e-07  0.00000000e+00
4.10804390e-03  8.69276407e+00  7.66350000e-02  3.53610000e+03  8.80600000e-07  0.00000000e+00
4.14912440e-03  8.66888078e+00  7.72920000e-02  3.53100000e+03  9.34600000e-07  0.00000000e+00
4.19061560e-03  8.64425395e+00  7.79720000e-02  3.52680000e+03  9.91700000e-07  0.00000000e+00
4.23252170e-03  8.61885264e+00  7.86770000e-02  3.52350000e+03  1.05200000e-06  0.00000000e+00
4.27484700e-03  8.59264409e+00  7.94100000e-02  3.52110000e+03  1.11600000e-06  0.00000000e+00
4.31759540e-03  8.56559360e+00  8.01710000e-02  3.51970000e+03  1.18400000e-06  0.00000000e+00
4.36077140e-03  8.53766435e+00  8.09610000e-02  3.51920000e+03  1.25600000e-06  0.00000000e+00
4.40437910e-03  8.50881722e+00  8.17840000e-02  3.51970000e+03  1.33200000e-06  0.00000000e+00
4.44842290e-03  8.47901066e+00  8.26410000e-02  3.52140000e+03  1.41200000e-06  0.00000000e+00
4.49290710e-03  8.44820039e+00  8.35330000e-02  3.52420000e+03  1.49700000e-06  0.00000000e+00
4.53783620e-03  8.41633923e+00  8.44640000e-02  3.52820000e+03  1.58700000e-06  0.00000000e+00
4.58321460e-03  8.38337682e+00  8.54350000e-02  3.53340000e+03  1.68200000e-06  0.00000000e+00
4.62904670e-03  8.34925932e+00  8.64500000e-02  3.54000000e+03  1.78300000e-06  0.00000000e+00
4.67533720e-03  8.31392910e+00  8.75120000e-02  3.54800000e+03  1.88900000e-06  0.00000000e+00
4.72209050e-03  8.27732434e+00  8.86230000e-02  3.55740000e+03  2.00200000e-06  0.00000000e+00
4.76931140e-03  8.23937869e+00  8.97880000e-02  3.56850000e+03  2.12100000e-06  0.00000000e+00
4.81700460e-03  8.20002073e+00  9.10100000e-02  3.58130000e+03  2.24600000e-06  0.00000000e+00
4.86517460e-03  8.15917352e+00  9.22940000e-02  3.59580000e+03  2.37900000e-06  0.00000000e+00
4.91382640e-03  8.11675395e+00  9.36440000e-02  3.61230000e+03  2.51900000e-06  0.00000000e+00
4.96296460e-03  8.07267213e+00  9.50670000e-02  3.63090000e+03  2.66800000e-06  0.00000000e+00
5.01259430e-03  8.02683056e+00  9.65670000e-02  3.65170000e+03  2.82400000e-06  0.00000000e+00
5.06272020e-03  7.97912334e+00  9.81520000e-02  3.67490000e+03  2.99000000e-06  0.00000000e+00
5.11334740e-03  7.92943508e+00  9.98290000e-02  3.70060000e+03  3.16500000e-06  0.00000000e+00
5.16448090e-03  7.87763981e+00  1.01610000e-01  3.72920000e+03  3.34900000e-06  0.00000000e+00
5.21612570e-03  7.82359963e+00  1.03490000e-01  3.76090000e+03  3.54400000e-06  0.00000000e+00
5.26828690e-03  7.76716314e+00  1.05500000e-01  3.79590000e+03  3.75000000e-06  0.00000000e+00
5.32096980e-03  7.70816362e+00  1.07640000e-01  3.83460000e+03  3.96700000e-06  0.00000000e+00
5.37417950e-03  7.64641691e+00  1.09930000e-01  3.87720000e+03  4.19700000e-06  0.00000000e+00
5.42792130e-03  7.58171893e+00  1.12380000e-01  3.92440000e+03  4.43900000e-06  0.00000000e+00
5.48220050e-03  7.51384262e+00  1.15010000e-01  3.97640000e+03  4.69400000e-06  0.00000000e+00
5.53702250e-03  7.44258560e+00  1.17840000e-01  4.03390000e+03  4.96300000e-06  0.00000000e+00
5.59239280e-03  7.36756070e+00  1.20890000e-01  4.09750000e+03  5.24800000e-06  0.00000000e+00
5.64831670e-03  7.28849932e+00  1.24200000e-01  4.16800000e+03  5.54800000e-06  0.00000000e+00
5.70479980e-03  7.20503887e+00  1.27800000e-01  4.24630000e+03  5.86400000e-06  0.00000000e+00
5.76184780e-03  7.11676674e+00  1.31720000e-01  4.33330000e+03  6.19700000e-06  0.00000000e+00
5.81946630e-03  7.02321062e+00  1.36020000e-01  4.43050000e+03  6.54900000e-06  0.00000000e+00
5.87766100e-03  6.92382648e+00  1.40750000e-01  4.53930000e+03  6.92000000e-06  0.00000000e+00
5.93643760e-03  6.81798329e+00  1.45990000e-01  4.66150000e+03  7.31100000e-06  0.00000000e+00
5.99580200e-03  6.70494353e+00  1.51810000e-01  4.79940000e+03  7.72300000e-06  0.00000000e+00
6.05576000e-03  6.58383787e+00  1.58330000e-01  4.95590000e+03  8.15700000e-06  0.00000000e+00
6.11631760e-03  6.45363189e+00  1.65680000e-01  5.13460000e+03  8.61500000e-06  0.00000000e+00
6.17748080e-03  6.31308170e+00  1.74030000e-01  5.33990000e+03  9.09700000e-06  0.00000000e+00
6.23925560e-03  6.16067358e+00  1.83600000e-01  5.57790000e+03  9.60500000e-06  0.00000000e+00
6.30164810e-03  5.99454033e+00  1.94690000e-01  5.85630000e+03  1.01400000e-05  0.00000000e+00
6.36466460e-03  5.81234265e+00  2.07700000e-01  6.18570000e+03  1.07000000e-05  0.00000000e+00
6.42831130e-03  5.61109658e+00  2.23180000e-01  6.58070000e+03  1.13000000e-05  0.00000000e+00
6.49259440e-03  5.38691483e+00  2.41900000e-01  7.06220000e+03  1.19200000e-05  0.00000000e+00
6.55752030e-03  5.13460510e+00  2.65020000e-01  7.66080000e+03  1.25800000e-05  0.00000000e+00
6.62309550e-03  4.84701973e+00  2.94330000e-01  8.42360000e+03  1.32700000e-05  0.00000000e+00
6.68932650e-03  4.51394874e+00  3.32680000e-01  9.42700000e+03  1.40000000e-05  0.00000000e+00
6.75621970e-03  4.12011635e+00  3.85060000e-01  1.08030000e+04  1.47700000e-05  0.00000000e+00
6.82378190e-03  3.64126970e+00  4.60870000e-01  1.28020000e+04  1.55800000e-05  0.00000000e+00
6.89201980e-03  3.03579426e+00  5.80210000e-01  1.59570000e+04  1.64300000e-05  0.00000000e+00
6.96094000e-03  2.22474177e+00  7.94490000e-01  2.16350000e+04  1.73200000e-05  0.00000000e+00
7.03054940e-03  1.04366530e+00  1.27870000e+00  3.44760000e+04  1.82600000e-05  0.00000000e+00
