#  Ra:    Z = 88;   Atomic weight = 226.0254 g/mol ;    nominal density:   [INLINE] = 5.0000E+00 g/cm3
#         a(barns/atom) = (cm2/g)    3.75324E+02
#         E(eV) (cm2/g) = f2(e/atom)    1.86175E+05
#         24 edges. Edge energies (keV):
# K      1.03922E+02  L I    1.92367E+01  L II   1.84843E+01  L III  1.54444E+01
# M I    4.82200E+00  M II   4.48950E+00  M III  3.79180E+00  M IV   3.24840E+00
# M V    3.10490E+00  N I    1.20840E+00  N II   1.05760E+00  N III  8.79100E-01
# N IV   6.35900E-01  N V    6.02700E-01  N VI   2.98900E-01  N VII  2.98900E-01
# O I    2.54400E-01  O II   2.00400E-01  O III  1.52800E-01  O IV   6.72000E-02
# O V    6.72000E-02  P I    4.35000E-02  P II   1.88000E-02  P III  1.88000E-02
#         Relativistic correction estimate frel (H82,3/5CL) = -2.2901E+00, -1.3326E+00 e/atom
#         Nuclear Thomson correction fNT = -1.8795E-02 e/atom
#    _________________________________________________________________________________________________________
#  Form Factors, Attenuation and Scattering Cross-sections
#  Z=88, E = 0.001 - 1000 keV
#                                                             Attenuation
#    E         f1            f2                     [INLINE] (coh+inc) Coefficient    K       wavelength
#    keV       e/atom       e/atom      cm2/g       cm2/g      cm2/g          cm2/g        nm
1.01000000e-03  9.74870294e+00  6.72080000e-02  1.23890000e+04  3.67600000e-11  0.00000000e+00
1.02010000e-03  9.76386873e+00  6.72260000e-02  1.22690000e+04  3.98000000e-11  0.00000000e+00
1.03030100e-03  9.77242307e+00  6.72440000e-02  1.21510000e+04  4.30900000e-11  0.00000000e+00
1.04060400e-03  9.77909348e+00  6.72620000e-02  1.20340000e+04  4.66300000e-11  0.00000000e+00
1.05101010e-03  9.78382754e+00  6.72800000e-02  1.19180000e+04  5.04700000e-11  0.00000000e+00
1.06152020e-03  9.78758718e+00  6.72990000e-02  1.18030000e+04  5.46100000e-11  0.00000000e+00
1.07213540e-03  9.79080315e+00  6.73170000e-02  1.16900000e+04  5.90800000e-11  0.00000000e+00
1.08285670e-03  9.79361173e+00  6.73360000e-02  1.15770000e+04  6.39100000e-11  0.00000000e+00
1.09368530e-03  9.79627801e+00  6.73560000e-02  1.14660000e+04  6.91200000e-11  0.00000000e+00
1.10462210e-03  9.79857754e+00  6.73750000e-02  1.13560000e+04  7.47500000e-11  0.00000000e+00
1.11566830e-03  9.80056901e+00  6.73950000e-02  1.12460000e+04  8.08300000e-11  0.00000000e+00
1.12682500e-03  9.80252232e+00  6.74140000e-02  1.11380000e+04  8.73900000e-11  0.00000000e+00
1.13809330e-03  9.80435248e+00  6.74340000e-02  1.10310000e+04  9.44700000e-11  0.00000000e+00
1.14947420e-03  9.80601483e+00  6.74550000e-02  1.09250000e+04  1.02100000e-10  0.00000000e+00
1.16096900e-03  9.80742362e+00  6.74750000e-02  1.08200000e+04  1.10300000e-10  0.00000000e+00
1.17257860e-03  9.80874251e+00  6.74960000e-02  1.07170000e+04  1.19200000e-10  0.00000000e+00
1.18430440e-03  9.80998113e+00  6.75170000e-02  1.06140000e+04  1.28800000e-10  0.00000000e+00
1.19614750e-03  9.81114751e+00  6.75380000e-02  1.05120000e+04  1.39100000e-10  0.00000000e+00
1.20810900e-03  9.81224840e+00  6.75590000e-02  1.04110000e+04  1.50300000e-10  0.00000000e+00
1.22019000e-03  9.81328955e+00  6.75810000e-02  1.03110000e+04  1.62300000e-10  0.00000000e+00
1.23239190e-03  9.81427588e+00  6.76030000e-02  1.02130000e+04  1.75200000e-10  0.00000000e+00
1.24471590e-03  9.81521165e+00  6.76250000e-02  1.01150000e+04  1.89200000e-10  0.00000000e+00
1.25716300e-03  9.81610053e+00  6.76470000e-02  1.00180000e+04  2.04200000e-10  0.00000000e+00
1.26973460e-03  9.81694575e+00  6.76700000e-02  9.92210000e+03  2.20400000e-10  0.00000000e+00
1.28243200e-03  9.81775014e+00  6.76930000e-02  9.82720000e+03  2.37900000e-10  0.00000000e+00
1.29525630e-03  9.81851619e+00  6.77160000e-02  9.73330000e+03  2.56700000e-10  0.00000000e+00
1.30820890e-03  9.81924610e+00  6.77400000e-02  9.64020000e+03  2.76900000e-10  0.00000000e+00
1.32129100e-03  9.81994184e+00  6.77630000e-02  9.54810000e+03  2.98700000e-10  0.00000000e+00
1.33450390e-03  9.82060516e+00  6.77870000e-02  9.45690000e+03  3.22200000e-10  0.00000000e+00
1.34784890e-03  9.82123761e+00  6.78110000e-02  9.36660000e+03  3.47400000e-10  0.00000000e+00
1.36132740e-03  9.82184058e+00  6.78360000e-02  9.27720000e+03  3.74600000e-10  0.00000000e+00
1.37494070e-03  9.82241535e+00  6.78610000e-02  9.18870000e+03  4.03900000e-10  0.00000000e+00
1.38869010e-03  9.82296302e+00  6.78860000e-02  9.10110000e+03  4.35400000e-10  0.00000000e+00
1.40257700e-03  9.82348462e+00  6.79110000e-02  9.01430000e+03  4.69300000e-10  0.00000000e+00
1.41660280e-03  9.82398105e+00  6.79360000e-02  8.92850000e+03  5.05700000e-10  0.00000000e+00
1.43076880e-03  9.82445315e+00  6.79620000e-02  8.84340000e+03  5.44900000e-10  0.00000000e+00
1.44507650e-03  9.82490166e+00  6.79890000e-02  8.75920000e+03  5.87100000e-10  0.00000000e+00
1.45952720e-03  9.82542609e+00  6.80150000e-02  8.67590000e+03  6.32400000e-10  0.00000000e+00
1.47412250e-03  9.82582468e+00  6.80420000e-02  8.59340000e+03  6.81100000e-10  0.00000000e+00
1.48886370e-03  9.82620173e+00  6.80690000e-02  8.51170000e+03  7.33500000e-10  0.00000000e+00
1.50375240e-03  9.82665151e+00  6.80960000e-02  8.43080000e+03  7.89800000e-10  0.00000000e+00
1.51878990e-03  9.82698527e+00  6.81240000e-02  8.35070000e+03  8.50300000e-10  0.00000000e+00
1.53397780e-03  9.82729881e+00  6.81520000e-02  8.27140000e+03  9.15400000e-10  0.00000000e+00
1.54931760e-03  9.82759247e+00  6.81800000e-02  8.19300000e+03  9.85200000e-10  0.00000000e+00
1.56481070e-03  9.82796553e+00  6.82090000e-02  8.11520000e+03  1.06000000e-09  0.00000000e+00
1.58045890e-03  9.82821616e+00  6.82380000e-02  8.03830000e+03  1.14100000e-09  0.00000000e+00
1.59626340e-03  9.82844789e+00  6.82670000e-02  7.96220000e+03  1.22700000e-09  0.00000000e+00
1.61222610e-03  9.82866092e+00  6.82970000e-02  7.88670000e+03  1.32000000e-09  0.00000000e+00
1.62834830e-03  9.82885540e+00  6.83270000e-02  7.81210000e+03  1.42000000e-09  0.00000000e+00
1.64463180e-03  9.82903149e+00  6.83570000e-02  7.73820000e+03  1.52700000e-09  0.00000000e+00
1.66107810e-03  9.82922735e+00  6.83880000e-02  7.66500000e+03  1.64200000e-09  0.00000000e+00
1.67768890e-03  9.82936637e+00  6.84190000e-02  7.59260000e+03  1.76600000e-09  0.00000000e+00
1.69446580e-03  9.82952642e+00  6.84510000e-02  7.52080000e+03  1.89800000e-09  0.00000000e+00
1.71141050e-03  9.82962867e+00  6.84830000e-02  7.44980000e+03  2.04000000e-09  0.00000000e+00
1.72852460e-03  9.82971291e+00  6.85150000e-02  7.37950000e+03  2.19200000e-09  0.00000000e+00
1.74580980e-03  9.82977915e+00  6.85470000e-02  7.31000000e+03  2.35600000e-09  0.00000000e+00
1.76326790e-03  9.82982737e+00  6.85800000e-02  7.24110000e+03  2.53100000e-09  0.00000000e+00
1.78090060e-03  9.82985755e+00  6.86130000e-02  7.17280000e+03  2.71900000e-09  0.00000000e+00
1.79870960e-03  9.82986967e+00  6.86470000e-02  7.10530000e+03  2.92000000e-09  0.00000000e+00
1.81669670e-03  9.82986366e+00  6.86810000e-02  7.03850000e+03  3.13600000e-09  0.00000000e+00
1.83486370e-03  9.82983945e+00  6.87160000e-02  6.97230000e+03  3.36800000e-09  0.00000000e+00
1.85321230e-03  9.82979697e+00  6.87510000e-02  6.90680000e+03  3.61600000e-09  0.00000000e+00
1.87174440e-03  9.82973611e+00  6.87860000e-02  6.84190000e+03  3.88200000e-09  0.00000000e+00
1.89046190e-03  9.82965675e+00  6.88220000e-02  6.77770000e+03  4.16600000e-09  0.00000000e+00
1.90936650e-03  9.82955879e+00  6.88580000e-02  6.71410000e+03  4.47100000e-09  0.00000000e+00
1.92846020e-03  9.82951229e+00  6.88950000e-02  6.65110000e+03  4.79800000e-09  0.00000000e+00
1.94774480e-03  9.82937589e+00  6.89320000e-02  6.58880000e+03  5.14800000e-09  0.00000000e+00
1.96722220e-03  9.82922041e+00  6.89690000e-02  6.52710000e+03  5.52300000e-09  0.00000000e+00
1.98689440e-03  9.82904570e+00  6.90070000e-02  6.46610000e+03  5.92400000e-09  0.00000000e+00
2.00676340e-03  9.82885156e+00  6.90450000e-02  6.40560000e+03  6.35300000e-09  0.00000000e+00
2.02683100e-03  9.82863778e+00  6.90840000e-02  6.34580000e+03  6.81300000e-09  0.00000000e+00
2.04709930e-03  9.82840417e+00  6.91240000e-02  6.28650000e+03  7.30400000e-09  0.00000000e+00
2.06757030e-03  9.82815049e+00  6.91630000e-02  6.22780000e+03  7.83000000e-09  0.00000000e+00
2.08824600e-03  9.82787651e+00  6.92040000e-02  6.16980000e+03  8.39300000e-09  0.00000000e+00
2.10912850e-03  9.82758198e+00  6.92440000e-02  6.11230000e+03  8.99600000e-09  0.00000000e+00
2.13021980e-03  9.82726665e+00  6.92860000e-02  6.05540000e+03  9.64000000e-09  0.00000000e+00
2.15152200e-03  9.82693024e+00  6.93270000e-02  5.99900000e+03  1.03300000e-08  0.00000000e+00
2.17303720e-03  9.82657247e+00  6.93700000e-02  5.94320000e+03  1.10700000e-08  0.00000000e+00
2.19476750e-03  9.82619305e+00  6.94120000e-02  5.88800000e+03  1.18500000e-08  0.00000000e+00
2.21671520e-03  9.82579168e+00  6.94560000e-02  5.83340000e+03  1.26900000e-08  0.00000000e+00
2.23888240e-03  9.82536803e+00  6.94990000e-02  5.77930000e+03  1.35900000e-08  0.00000000e+00
2.26127120e-03  9.82492179e+00  6.95440000e-02  5.72570000e+03  1.45600000e-08  0.00000000e+00
2.28388390e-03  9.82445262e+00  6.95890000e-02  5.67270000e+03  1.55800000e-08  0.00000000e+00
2.30672270e-03  9.82396016e+00  6.96340000e-02  5.62020000e+03  1.66800000e-08  0.00000000e+00
2.32979000e-03  9.82344406e+00  6.96800000e-02  5.56820000e+03  1.78500000e-08  0.00000000e+00
2.35308790e-03  9.82290393e+00  6.97270000e-02  5.51680000e+03  1.91100000e-08  0.00000000e+00
2.37661870e-03  9.82233940e+00  6.97740000e-02  5.46580000e+03  2.04400000e-08  0.00000000e+00
2.40038490e-03  9.82175008e+00  6.98220000e-02  5.41540000e+03  2.18700000e-08  0.00000000e+00
2.42438880e-03  9.82113554e+00  6.98700000e-02  5.36550000e+03  2.34000000e-08  0.00000000e+00
2.44863270e-03  9.82049536e+00  6.99190000e-02  5.31610000e+03  2.50300000e-08  0.00000000e+00
2.47311900e-03  9.81982913e+00  6.99690000e-02  5.26720000e+03  2.67600000e-08  0.00000000e+00
2.49785020e-03  9.81913638e+00  7.00190000e-02  5.21880000e+03  2.86200000e-08  0.00000000e+00
2.52282870e-03  9.81841667e+00  7.00700000e-02  5.17090000e+03  3.06000000e-08  0.00000000e+00
2.54805700e-03  9.81766951e+00  7.01210000e-02  5.12340000e+03  3.27100000e-08  0.00000000e+00
2.57353760e-03  9.81689443e+00  7.01730000e-02  5.07650000e+03  3.49600000e-08  0.00000000e+00
2.59927290e-03  9.81609092e+00  7.02260000e-02  5.03000000e+03  3.73600000e-08  0.00000000e+00
2.62526570e-03  9.81525849e+00  7.02790000e-02  4.98400000e+03  3.99300000e-08  0.00000000e+00
2.65151830e-03  9.81439659e+00  7.03330000e-02  4.93840000e+03  4.26600000e-08  0.00000000e+00
2.67803350e-03  9.81350470e+00  7.03880000e-02  4.89330000e+03  4.55700000e-08  0.00000000e+00
2.70481380e-03  9.81258226e+00  7.04440000e-02  4.84870000e+03  4.86800000e-08  0.00000000e+00
2.73186200e-03  9.81162870e+00  7.05000000e-02  4.80450000e+03  5.19900000e-08  0.00000000e+00
2.75918060e-03  9.81064345e+00  7.05570000e-02  4.76080000e+03  5.55100000e-08  0.00000000e+00
2.78677240e-03  9.80962590e+00  7.06150000e-02  4.71750000e+03  5.92700000e-08  0.00000000e+00
2.81464010e-03  9.80857545e+00  7.06730000e-02  4.67470000e+03  6.32800000e-08  0.00000000e+00
2.84278650e-03  9.80749147e+00  7.07320000e-02  4.63230000e+03  6.75500000e-08  0.00000000e+00
2.87121440e-03  9.80637332e+00  7.07920000e-02  4.59030000e+03  7.20900000e-08  0.00000000e+00
2.89992650e-03  9.80522033e+00  7.08530000e-02  4.54880000e+03  7.69400000e-08  0.00000000e+00
2.92892580e-03  9.80403184e+00  7.09140000e-02  4.50760000e+03  8.20900000e-08  0.00000000e+00
2.95821510e-03  9.80280714e+00  7.09770000e-02  4.46690000e+03  8.75800000e-08  0.00000000e+00
2.98779720e-03  9.80154555e+00  7.10400000e-02  4.42660000e+03  9.34200000e-08  0.00000000e+00
3.01767520e-03  9.80024631e+00  7.11040000e-02  4.38670000e+03  9.96500000e-08  0.00000000e+00
3.04785190e-03  9.79890871e+00  7.11690000e-02  4.34730000e+03  1.06300000e-07  0.00000000e+00
3.07833040e-03  9.79753196e+00  7.12340000e-02  4.30820000e+03  1.13300000e-07  0.00000000e+00
3.10911370e-03  9.79611530e+00  7.13010000e-02  4.26950000e+03  1.20800000e-07  0.00000000e+00
3.14020490e-03  9.79465792e+00  7.13680000e-02  4.23130000e+03  1.28800000e-07  0.00000000e+00
3.17160690e-03  9.79315900e+00  7.14370000e-02  4.19340000e+03  1.37300000e-07  0.00000000e+00
3.20332300e-03  9.79161770e+00  7.15060000e-02  4.15590000e+03  1.46300000e-07  0.00000000e+00
3.23535620e-03  9.79003318e+00  7.15760000e-02  4.11880000e+03  1.55900000e-07  0.00000000e+00
3.26770980e-03  9.78840454e+00  7.16480000e-02  4.08210000e+03  1.66100000e-07  0.00000000e+00
3.30038690e-03  9.78673088e+00  7.17200000e-02  4.04570000e+03  1.77000000e-07  0.00000000e+00
3.33339080e-03  9.78501129e+00  7.17930000e-02  4.00970000e+03  1.88500000e-07  0.00000000e+00
3.36672470e-03  9.78324482e+00  7.18670000e-02  3.97410000e+03  2.00700000e-07  0.00000000e+00
3.40039190e-03  9.78143050e+00  7.19420000e-02  3.93890000e+03  2.13800000e-07  0.00000000e+00
3.43439580e-03  9.77956734e+00  7.20180000e-02  3.90400000e+03  2.27600000e-07  0.00000000e+00
3.46873980e-03  9.77765433e+00  7.20950000e-02  3.86950000e+03  2.42300000e-07  0.00000000e+00
3.50342720e-03  9.77569042e+00  7.21740000e-02  3.83540000e+03  2.58000000e-07  0.00000000e+00
3.53846150e-03  9.77367456e+00  7.22530000e-02  3.80160000e+03  2.74600000e-07  0.00000000e+00
3.57384610e-03  9.77160565e+00  7.23340000e-02  3.76810000e+03  2.92200000e-07  0.00000000e+00
3.60958450e-03  9.76948258e+00  7.24150000e-02  3.73500000e+03  3.10900000e-07  0.00000000e+00
3.64568040e-03  9.76730420e+00  7.24980000e-02  3.70230000e+03  3.30800000e-07  0.00000000e+00
3.68213720e-03  9.76506935e+00  7.25820000e-02  3.66990000e+03  3.51900000e-07  0.00000000e+00
3.71895860e-03  9.76277681e+00  7.26670000e-02  3.63780000e+03  3.74300000e-07  0.00000000e+00
3.75614810e-03  9.76042538e+00  7.27530000e-02  3.60600000e+03  3.98100000e-07  0.00000000e+00
3.79370960e-03  9.75801378e+00  7.28410000e-02  3.57460000e+03  4.23300000e-07  0.00000000e+00
3.83164670e-03  9.75554073e+00  7.29300000e-02  3.54360000e+03  4.50100000e-07  0.00000000e+00
3.86996320e-03  9.75300491e+00  7.30200000e-02  3.51280000e+03  4.78500000e-07  0.00000000e+00
3.90866280e-03  9.75040497e+00  7.31110000e-02  3.48240000e+03  5.08600000e-07  0.00000000e+00
3.94774950e-03  9.74773951e+00  7.32040000e-02  3.45230000e+03  5.40500000e-07  0.00000000e+00
3.98722690e-03  9.74500713e+00  7.32980000e-02  3.42250000e+03  5.74400000e-07  0.00000000e+00
4.02709920e-03  9.74220637e+00  7.33930000e-02  3.39300000e+03  6.10300000e-07  0.00000000e+00
4.06737020e-03  9.73933573e+00  7.34900000e-02  3.36380000e+03  6.48400000e-07  0.00000000e+00
4.10804390e-03  9.73639368e+00  7.35880000e-02  3.33500000e+03  6.88800000e-07  0.00000000e+00
4.14912440e-03  9.73337867e+00  7.36880000e-02  3.30650000e+03  7.31600000e-07  0.00000000e+00
4.19061560e-03  9.73028909e+00  7.37890000e-02  3.27820000e+03  7.77000000e-07  0.00000000e+00
4.23252170e-03  9.72712330e+00  7.38920000e-02  3.25030000e+03  8.25000000e-07  0.00000000e+00
4.27484700e-03  9.72387960e+00  7.39960000e-02  3.22260000e+03  8.76000000e-07  0.00000000e+00
4.31759540e-03  9.72055628e+00  7.41020000e-02  3.19530000e+03  9.29900000e-07  0.00000000e+00
4.36077140e-03  9.71715155e+00  7.42090000e-02  3.16820000e+03  9.87100000e-07  0.00000000e+00
4.40437910e-03  9.71366361e+00  7.43180000e-02  3.14150000e+03  1.04800000e-06  0.00000000e+00
4.44842290e-03  9.71009060e+00  7.44290000e-02  3.11500000e+03  1.11200000e-06  0.00000000e+00
4.49290710e-03  9.70643059e+00  7.45410000e-02  3.08880000e+03  1.18000000e-06  0.00000000e+00
4.53783620e-03  9.70268164e+00  7.46560000e-02  3.06290000e+03  1.25100000e-06  0.00000000e+00
4.58321460e-03  9.69884174e+00  7.47720000e-02  3.03730000e+03  1.32700000e-06  0.00000000e+00
4.62904670e-03  9.69490883e+00  7.48890000e-02  3.01200000e+03  1.40800000e-06  0.00000000e+00
4.67533720e-03  9.69088078e+00  7.50090000e-02  2.98690000e+03  1.49300000e-06  0.00000000e+00
4.72209050e-03  9.68675544e+00  7.51300000e-02  2.96210000e+03  1.58300000e-06  0.00000000e+00
4.76931140e-03  9.68253059e+00  7.52540000e-02  2.93760000e+03  1.67900000e-06  0.00000000e+00
4.81700460e-03  9.67820393e+00  7.53790000e-02  2.91340000e+03  1.77900000e-06  0.00000000e+00
4.86517460e-03  9.67377312e+00  7.55060000e-02  2.88940000e+03  1.88600000e-06  0.00000000e+00
4.91382640e-03  9.66923576e+00  7.56360000e-02  2.86570000e+03  1.99900000e-06  0.00000000e+00
4.96296460e-03  9.66458939e+00  7.57670000e-02  2.84220000e+03  2.11800000e-06  0.00000000e+00
5.01259430e-03  9.65983146e+00  7.59010000e-02  2.81910000e+03  2.24500000e-06  0.00000000e+00
5.06272020e-03  9.65495938e+00  7.60360000e-02  2.79610000e+03  2.37800000e-06  0.00000000e+00
5.11334740e-03  9.64997046e+00  7.61740000e-02  2.77350000e+03  2.51900000e-06  0.00000000e+00
5.16448090e-03  9.64486198e+00  7.63140000e-02  2.75110000e+03  2.66800000e-06  0.00000000e+00
5.21612570e-03  9.63963110e+00  7.64570000e-02  2.72890000e+03  2.82500000e-06  0.00000000e+00
5.26828690e-03  9.63427494e+00  7.66020000e-02  2.70700000e+03  2.99200000e-06  0.00000000e+00
5.32096980e-03  9.62879051e+00  7.67490000e-02  2.68540000e+03  3.16700000e-06  0.00000000e+00
5.37417950e-03  9.62317476e+00  7.68990000e-02  2.66400000e+03  3.35300000e-06  0.00000000e+00
5.42792130e-03  9.61742454e+00  7.70520000e-02  2.64280000e+03  3.54900000e-06  0.00000000e+00
5.48220050e-03  9.61153663e+00  7.72070000e-02  2.62190000e+03  3.75600000e-06  0.00000000e+00
5.53702250e-03  9.60550770e+00  7.73640000e-02  2.60130000e+03  3.97500000e-06  0.00000000e+00
5.59239280e-03  9.59933434e+00  7.75250000e-02  2.58090000e+03  4.20600000e-06  0.00000000e+00
5.64831670e-03  9.59301303e+00  7.76880000e-02  2.56070000e+03  4.44900000e-06  0.00000000e+00
5.70479980e-03  9.58654016e+00  7.78540000e-02  2.54080000e+03  4.70700000e-06  0.00000000e+00
5.76184780e-03  9.57991201e+00  7.80230000e-02  2.52110000e+03  4.97800000e-06  0.00000000e+00
5.81946630e-03  9.57317678e+00  7.81950000e-02  2.50160000e+03  5.26500000e-06  0.00000000e+00
5.87766100e-03  9.56622596e+00  7.83700000e-02  2.48240000e+03  5.56700000e-06  0.00000000e+00
5.93643760e-03  9.55910805e+00  7.85480000e-02  2.46340000e+03  5.88600000e-06  0.00000000e+00
5.99580200e-03  9.55181887e+00  7.87300000e-02  2.44460000e+03  6.22200000e-06  0.00000000e+00
6.05576000e-03  9.54435414e+00  7.89150000e-02  2.42610000e+03  6.57700000e-06  0.00000000e+00
6.11631760e-03  9.53670943e+00  7.91030000e-02  2.40780000e+03  6.95100000e-06  0.00000000e+00
6.17748080e-03  9.52888017e+00  7.92940000e-02  2.38980000e+03  7.34600000e-06  0.00000000e+00
6.23925560e-03  9.52086167e+00  7.94900000e-02  2.37190000e+03  7.76200000e-06  0.00000000e+00
6.30164810e-03  9.51264910e+00  7.96890000e-02  2.35430000e+03  8.20000000e-06  0.00000000e+00
6.36466460e-03  9.50423745e+00  7.98910000e-02  2.33690000e+03  8.66200000e-06  0.00000000e+00
6.42831130e-03  9.49562158e+00  8.00980000e-02  2.31980000e+03  9.14900000e-06  0.00000000e+00
6.49259440e-03  9.48679620e+00  8.03080000e-02  2.30280000e+03  9.66200000e-06  0.00000000e+00
6.55752030e-03  9.47775581e+00  8.05230000e-02  2.28610000e+03  1.02000000e-05  0.00000000e+00
6.62309550e-03  9.46849477e+00  8.07410000e-02  2.26960000e+03  1.07700000e-05  0.00000000e+00
6.68932650e-03  9.45900726e+00  8.09640000e-02  2.25340000e+03  1.13700000e-05  0.00000000e+00
6.75621970e-03  9.44928725e+00  8.11920000e-02  2.23730000e+03  1.20000000e-05  0.00000000e+00
6.82378190e-03  9.43932853e+00  8.14240000e-02  2.22150000e+03  1.26700000e-05  0.00000000e+00
6.89201980e-03  9.42912467e+00  8.16610000e-02  2.20590000e+03  1.33700000e-05  0.00000000e+00
6.96094000e-03  9.41866905e+00  8.19020000e-02  2.19050000e+03  1.41100000e-05  0.00000000e+00
7.03054940e-03  9.40795481e+00  8.21480000e-02  2.17540000e+03  1.48900000e-05  0.00000000e+00
