#  Pa:    Z = 91;   Atomic weight = 231.0359 g/mol ;    nominal density:   [INLINE] = 1.5340E+01 g/cm3
#         a(barns/atom) = (cm2/g)    3.83644E+02
#         E(eV) (cm2/g) = f2(e/atom)    1.82138E+05
#         24 edges. Edge energies (keV):
# K      1.12601E+02  L I    2.11046E+01  L II   2.03137E+01  L III  1.67331E+01
# M I    5.36690E+00  M II   5.00090E+00  M III  4.17380E+00  M IV   3.61120E+00
# M V    3.44180E+00  N I    1.38710E+00  N II   1.22430E+00  N III  1.00670E+00
# N IV   7.43400E-01  N V    7.08200E-01  N VI   3.71200E-01  N VII  3.59500E-01
# O I    3.09600E-01  O II   2.33624E-01  O III  1.83050E-01  O IV   9.66789E-02
# O V    8.92408E-02  P I    4.54585E-02  P II   2.85451E-02  P III  2.03206E-02
#         Relativistic correction estimate frel (H82,3/5CL) = -2.5033E+00, -1.4526E+00 e/atom
#         Nuclear Thomson correction fNT = -1.9663E-02 e/atom
#    _________________________________________________________________________________________________________
#  Form Factors, Attenuation and Scattering Cross-sections
#  Z=91, E = 0.001 - 1000 keV
#                                                             Attenuation
#    E         f1            f2                     [INLINE] (coh+inc) Coefficient    K       wavelength
#    keV       e/atom       e/atom      cm2/g       cm2/g      cm2/g          cm2/g        nm
1.01000000e-03  2.54360939e+01  4.11540000e-02  7.42140000e+03  3.10200000e-11  0.00000000e+00
1.02010000e-03  2.54454639e+01  4.11650000e-02  7.34990000e+03  3.36000000e-11  0.00000000e+00
1.03030100e-03  2.54504932e+01  4.11760000e-02  7.27910000e+03  3.63900000e-11  0.00000000e+00
1.04060400e-03  2.54540606e+01  4.11870000e-02  7.20900000e+03  3.94200000e-11  0.00000000e+00
1.05101010e-03  2.54570734e+01  4.11990000e-02  7.13960000e+03  4.26800000e-11  0.00000000e+00
1.06152020e-03  2.54595151e+01  4.12100000e-02  7.07090000e+03  4.62100000e-11  0.00000000e+00
1.07213540e-03  2.54616173e+01  4.12220000e-02  7.00290000e+03  5.00200000e-11  0.00000000e+00
1.08285670e-03  2.54633006e+01  4.12340000e-02  6.93550000e+03  5.41400000e-11  0.00000000e+00
1.09368530e-03  2.54648044e+01  4.12450000e-02  6.86880000e+03  5.86000000e-11  0.00000000e+00
1.10462210e-03  2.54662623e+01  4.12570000e-02  6.80280000e+03  6.34100000e-11  0.00000000e+00
1.11566830e-03  2.54676223e+01  4.12700000e-02  6.73740000e+03  6.86000000e-11  0.00000000e+00
1.12682500e-03  2.54687338e+01  4.12820000e-02  6.67270000e+03  7.42100000e-11  0.00000000e+00
1.13809330e-03  2.54697661e+01  4.12940000e-02  6.60860000e+03  8.02600000e-11  0.00000000e+00
1.14947420e-03  2.54708459e+01  4.13070000e-02  6.54520000e+03  8.68000000e-11  0.00000000e+00
1.16096900e-03  2.54718739e+01  4.13200000e-02  6.48240000e+03  9.38600000e-11  0.00000000e+00
1.17257860e-03  2.54727010e+01  4.13320000e-02  6.42020000e+03  1.01500000e-10  0.00000000e+00
1.18430440e-03  2.54734836e+01  4.13450000e-02  6.35860000e+03  1.09700000e-10  0.00000000e+00
1.19614750e-03  2.54742261e+01  4.13590000e-02  6.29770000e+03  1.18600000e-10  0.00000000e+00
1.20810900e-03  2.54749323e+01  4.13720000e-02  6.23730000e+03  1.28100000e-10  0.00000000e+00
1.22019000e-03  2.54756054e+01  4.13850000e-02  6.17760000e+03  1.38400000e-10  0.00000000e+00
1.23239190e-03  2.54762481e+01  4.13990000e-02  6.11840000e+03  1.49600000e-10  0.00000000e+00
1.24471590e-03  2.54768629e+01  4.14130000e-02  6.05980000e+03  1.61600000e-10  0.00000000e+00
1.25716300e-03  2.54774518e+01  4.14260000e-02  6.00190000e+03  1.74500000e-10  0.00000000e+00
1.26973460e-03  2.54780167e+01  4.14400000e-02  5.94440000e+03  1.88400000e-10  0.00000000e+00
1.28243200e-03  2.54785591e+01  4.14550000e-02  5.88760000e+03  2.03500000e-10  0.00000000e+00
1.29525630e-03  2.54790805e+01  4.14690000e-02  5.83130000e+03  2.19700000e-10  0.00000000e+00
1.30820890e-03  2.54795820e+01  4.14830000e-02  5.77560000e+03  2.37100000e-10  0.00000000e+00
1.32129100e-03  2.54800649e+01  4.14980000e-02  5.72040000e+03  2.55900000e-10  0.00000000e+00
1.33450390e-03  2.54805302e+01  4.15130000e-02  5.66580000e+03  2.76200000e-10  0.00000000e+00
1.34784890e-03  2.54809787e+01  4.15280000e-02  5.61180000e+03  2.98000000e-10  0.00000000e+00
1.36132740e-03  2.54814112e+01  4.15430000e-02  5.55820000e+03  3.21500000e-10  0.00000000e+00
1.37494070e-03  2.54818285e+01  4.15580000e-02  5.50520000e+03  3.46800000e-10  0.00000000e+00
1.38869010e-03  2.54822313e+01  4.15740000e-02  5.45280000e+03  3.74000000e-10  0.00000000e+00
1.40257700e-03  2.54826201e+01  4.15900000e-02  5.40080000e+03  4.03300000e-10  0.00000000e+00
1.41660280e-03  2.54829955e+01  4.16060000e-02  5.34940000e+03  4.34900000e-10  0.00000000e+00
1.43076880e-03  2.54833579e+01  4.16220000e-02  5.29840000e+03  4.68800000e-10  0.00000000e+00
1.44507650e-03  2.54837079e+01  4.16380000e-02  5.24800000e+03  5.05400000e-10  0.00000000e+00
1.45952720e-03  2.54840458e+01  4.16540000e-02  5.19810000e+03  5.44700000e-10  0.00000000e+00
1.47412250e-03  2.54843719e+01  4.16710000e-02  5.14870000e+03  5.87000000e-10  0.00000000e+00
1.48886370e-03  2.54846867e+01  4.16880000e-02  5.09980000e+03  6.32400000e-10  0.00000000e+00
1.50375240e-03  2.54849905e+01  4.17050000e-02  5.05130000e+03  6.81300000e-10  0.00000000e+00
1.51878990e-03  2.54852834e+01  4.17220000e-02  5.00340000e+03  7.33900000e-10  0.00000000e+00
1.53397780e-03  2.54855658e+01  4.17390000e-02  4.95590000e+03  7.90400000e-10  0.00000000e+00
1.54931760e-03  2.54858379e+01  4.17570000e-02  4.90890000e+03  8.51200000e-10  0.00000000e+00
1.56481070e-03  2.54861920e+01  4.17740000e-02  4.86240000e+03  9.16500000e-10  0.00000000e+00
1.58045890e-03  2.54864426e+01  4.17920000e-02  4.81630000e+03  9.86600000e-10  0.00000000e+00
1.59626340e-03  2.54866835e+01  4.18110000e-02  4.77070000e+03  1.06200000e-09  0.00000000e+00
1.61222610e-03  2.54869148e+01  4.18290000e-02  4.72550000e+03  1.14300000e-09  0.00000000e+00
1.62834830e-03  2.54872315e+01  4.18480000e-02  4.68080000e+03  1.23000000e-09  0.00000000e+00
1.64463180e-03  2.54874403e+01  4.18660000e-02  4.63660000e+03  1.32300000e-09  0.00000000e+00
1.66107810e-03  2.54876401e+01  4.18850000e-02  4.59270000e+03  1.42400000e-09  0.00000000e+00
1.67768890e-03  2.54878309e+01  4.19050000e-02  4.54940000e+03  1.53200000e-09  0.00000000e+00
1.69446580e-03  2.54880128e+01  4.19240000e-02  4.50640000e+03  1.64700000e-09  0.00000000e+00
1.71141050e-03  2.54881860e+01  4.19440000e-02  4.46390000e+03  1.77100000e-09  0.00000000e+00
1.72852460e-03  2.54883503e+01  4.19640000e-02  4.42180000e+03  1.90500000e-09  0.00000000e+00
1.74580980e-03  2.54885451e+01  4.19840000e-02  4.38010000e+03  2.04800000e-09  0.00000000e+00
1.76326790e-03  2.54886914e+01  4.20040000e-02  4.33890000e+03  2.20100000e-09  0.00000000e+00
1.78090060e-03  2.54888650e+01  4.20250000e-02  4.29800000e+03  2.36500000e-09  0.00000000e+00
1.79870960e-03  2.54889936e+01  4.20460000e-02  4.25760000e+03  2.54200000e-09  0.00000000e+00
1.81669670e-03  2.54891135e+01  4.20670000e-02  4.21750000e+03  2.73100000e-09  0.00000000e+00
1.83486370e-03  2.54892248e+01  4.20880000e-02  4.17790000e+03  2.93400000e-09  0.00000000e+00
1.85321230e-03  2.54893275e+01  4.21100000e-02  4.13870000e+03  3.15200000e-09  0.00000000e+00
1.87174440e-03  2.54894215e+01  4.21320000e-02  4.09980000e+03  3.38500000e-09  0.00000000e+00
1.89046190e-03  2.54895069e+01  4.21540000e-02  4.06130000e+03  3.63500000e-09  0.00000000e+00
1.90936650e-03  2.54895836e+01  4.21760000e-02  4.02330000e+03  3.90300000e-09  0.00000000e+00
1.92846020e-03  2.54896515e+01  4.21990000e-02  3.98560000e+03  4.19100000e-09  0.00000000e+00
1.94774480e-03  2.54897107e+01  4.22220000e-02  3.94830000e+03  4.49800000e-09  0.00000000e+00
1.96722220e-03  2.54897611e+01  4.22450000e-02  3.91130000e+03  4.82800000e-09  0.00000000e+00
1.98689440e-03  2.54898027e+01  4.22690000e-02  3.87470000e+03  5.18100000e-09  0.00000000e+00
2.00676340e-03  2.54898353e+01  4.22920000e-02  3.83850000e+03  5.55900000e-09  0.00000000e+00
2.02683100e-03  2.54899309e+01  4.23160000e-02  3.80270000e+03  5.96400000e-09  0.00000000e+00
2.04709930e-03  2.54899447e+01  4.23410000e-02  3.76720000e+03  6.39800000e-09  0.00000000e+00
2.06757030e-03  2.54899494e+01  4.23650000e-02  3.73210000e+03  6.86200000e-09  0.00000000e+00
2.08824600e-03  2.54899448e+01  4.23900000e-02  3.69730000e+03  7.35900000e-09  0.00000000e+00
2.10912850e-03  2.54899310e+01  4.24150000e-02  3.66290000e+03  7.89000000e-09  0.00000000e+00
2.13021980e-03  2.54899077e+01  4.24410000e-02  3.62880000e+03  8.45900000e-09  0.00000000e+00
2.15152200e-03  2.54898750e+01  4.24670000e-02  3.59500000e+03  9.06800000e-09  0.00000000e+00
2.17303720e-03  2.54898326e+01  4.24930000e-02  3.56160000e+03  9.71900000e-09  0.00000000e+00
2.19476750e-03  2.54897806e+01  4.25190000e-02  3.52860000e+03  1.04200000e-08  0.00000000e+00
2.21671520e-03  2.54897187e+01  4.25460000e-02  3.49580000e+03  1.11600000e-08  0.00000000e+00
2.23888240e-03  2.54896469e+01  4.25730000e-02  3.46340000e+03  1.19600000e-08  0.00000000e+00
2.26127120e-03  2.54895651e+01  4.26010000e-02  3.43130000e+03  1.28100000e-08  0.00000000e+00
2.28388390e-03  2.54894730e+01  4.26280000e-02  3.39960000e+03  1.37200000e-08  0.00000000e+00
2.30672270e-03  2.54893706e+01  4.26560000e-02  3.36810000e+03  1.46900000e-08  0.00000000e+00
2.32979000e-03  2.54892577e+01  4.26850000e-02  3.33700000e+03  1.57300000e-08  0.00000000e+00
2.35308790e-03  2.54891342e+01  4.27140000e-02  3.30620000e+03  1.68400000e-08  0.00000000e+00
2.37661870e-03  2.54890000e+01  4.27430000e-02  3.27570000e+03  1.80300000e-08  0.00000000e+00
2.40038490e-03  2.54888548e+01  4.27720000e-02  3.24550000e+03  1.93000000e-08  0.00000000e+00
2.42438880e-03  2.54886985e+01  4.28020000e-02  3.21560000e+03  2.06600000e-08  0.00000000e+00
2.44863270e-03  2.54885309e+01  4.28320000e-02  3.18600000e+03  2.21000000e-08  0.00000000e+00
2.47311900e-03  2.54883519e+01  4.28630000e-02  3.15670000e+03  2.36500000e-08  0.00000000e+00
2.49785020e-03  2.54881614e+01  4.28940000e-02  3.12770000e+03  2.53000000e-08  0.00000000e+00
2.52282870e-03  2.54879590e+01  4.29260000e-02  3.09900000e+03  2.70600000e-08  0.00000000e+00
2.54805700e-03  2.54877446e+01  4.29570000e-02  3.07060000e+03  2.89400000e-08  0.00000000e+00
2.57353760e-03  2.54875180e+01  4.29890000e-02  3.04250000e+03  3.09500000e-08  0.00000000e+00
2.59927290e-03  2.54872790e+01  4.30220000e-02  3.01470000e+03  3.30900000e-08  0.00000000e+00
2.62526570e-03  2.54870275e+01  4.30550000e-02  2.98710000e+03  3.53700000e-08  0.00000000e+00
2.65151830e-03  2.54867631e+01  4.30880000e-02  2.95980000e+03  3.78100000e-08  0.00000000e+00
2.67803350e-03  2.54864858e+01  4.31220000e-02  2.93280000e+03  4.04100000e-08  0.00000000e+00
2.70481380e-03  2.54861951e+01  4.31570000e-02  2.90610000e+03  4.31900000e-08  0.00000000e+00
2.73186200e-03  2.54858910e+01  4.31910000e-02  2.87960000e+03  4.61400000e-08  0.00000000e+00
2.75918060e-03  2.54855731e+01  4.32260000e-02  2.85340000e+03  4.93000000e-08  0.00000000e+00
2.78677240e-03  2.54852413e+01  4.32620000e-02  2.82750000e+03  5.26600000e-08  0.00000000e+00
2.81464010e-03  2.54848953e+01  4.32980000e-02  2.80190000e+03  5.62400000e-08  0.00000000e+00
2.84278650e-03  2.54845347e+01  4.33350000e-02  2.77640000e+03  6.00600000e-08  0.00000000e+00
2.87121440e-03  2.54841595e+01  4.33720000e-02  2.75130000e+03  6.41300000e-08  0.00000000e+00
2.89992650e-03  2.54837692e+01  4.34090000e-02  2.72640000e+03  6.84700000e-08  0.00000000e+00
2.92892580e-03  2.54833636e+01  4.34470000e-02  2.70180000e+03  7.30900000e-08  0.00000000e+00
2.95821510e-03  2.54829425e+01  4.34850000e-02  2.67740000e+03  7.80100000e-08  0.00000000e+00
2.98779720e-03  2.54825054e+01  4.35240000e-02  2.65330000e+03  8.32500000e-08  0.00000000e+00
3.01767520e-03  2.54820522e+01  4.35640000e-02  2.62940000e+03  8.88300000e-08  0.00000000e+00
3.04785190e-03  2.54815826e+01  4.36040000e-02  2.60570000e+03  9.47800000e-08  0.00000000e+00
3.07833040e-03  2.54810961e+01  4.36440000e-02  2.58230000e+03  1.01100000e-07  0.00000000e+00
3.10911370e-03  2.54805925e+01  4.36850000e-02  2.55920000e+03  1.07800000e-07  0.00000000e+00
3.14020490e-03  2.54800715e+01  4.37270000e-02  2.53620000e+03  1.15000000e-07  0.00000000e+00
3.17160690e-03  2.54795327e+01  4.37690000e-02  2.51350000e+03  1.22600000e-07  0.00000000e+00
3.20332300e-03  2.54789757e+01  4.38120000e-02  2.49110000e+03  1.30800000e-07  0.00000000e+00
3.23535620e-03  2.54784002e+01  4.38550000e-02  2.46880000e+03  1.39400000e-07  0.00000000e+00
3.26770980e-03  2.54778059e+01  4.38990000e-02  2.44680000e+03  1.48600000e-07  0.00000000e+00
3.30038690e-03  2.54771924e+01  4.39430000e-02  2.42510000e+03  1.58400000e-07  0.00000000e+00
3.33339080e-03  2.54765592e+01  4.39880000e-02  2.40350000e+03  1.68800000e-07  0.00000000e+00
3.36672470e-03  2.54759061e+01  4.40340000e-02  2.38220000e+03  1.79800000e-07  0.00000000e+00
3.40039190e-03  2.54752325e+01  4.40800000e-02  2.36110000e+03  1.91600000e-07  0.00000000e+00
3.43439580e-03  2.54745381e+01  4.41270000e-02  2.34020000e+03  2.04100000e-07  0.00000000e+00
3.46873980e-03  2.54738225e+01  4.41740000e-02  2.31950000e+03  2.17300000e-07  0.00000000e+00
3.50342720e-03  2.54730852e+01  4.42220000e-02  2.29900000e+03  2.31500000e-07  0.00000000e+00
3.53846150e-03  2.54723258e+01  4.42710000e-02  2.27880000e+03  2.46400000e-07  0.00000000e+00
3.57384610e-03  2.54715438e+01  4.43210000e-02  2.25880000e+03  2.62400000e-07  0.00000000e+00
3.60958450e-03  2.54707388e+01  4.43710000e-02  2.23890000e+03  2.79300000e-07  0.00000000e+00
3.64568040e-03  2.54699103e+01  4.44220000e-02  2.21930000e+03  2.97300000e-07  0.00000000e+00
3.68213720e-03  2.54690578e+01  4.44730000e-02  2.19990000e+03  3.16400000e-07  0.00000000e+00
3.71895860e-03  2.54681808e+01  4.45250000e-02  2.18070000e+03  3.36700000e-07  0.00000000e+00
3.75614810e-03  2.54672788e+01  4.45780000e-02  2.16160000e+03  3.58200000e-07  0.00000000e+00
3.79370960e-03  2.54663513e+01  4.46320000e-02  2.14280000e+03  3.81100000e-07  0.00000000e+00
3.83164670e-03  2.54653978e+01  4.46870000e-02  2.12420000e+03  4.05300000e-07  0.00000000e+00
3.86996320e-03  2.54644176e+01  4.47420000e-02  2.10580000e+03  4.31100000e-07  0.00000000e+00
3.90866280e-03  2.54634103e+01  4.47980000e-02  2.08750000e+03  4.58400000e-07  0.00000000e+00
3.94774950e-03  2.54623753e+01  4.48550000e-02  2.06950000e+03  4.87400000e-07  0.00000000e+00
3.98722690e-03  2.54613119e+01  4.49130000e-02  2.05160000e+03  5.18200000e-07  0.00000000e+00
4.02709920e-03  2.54602196e+01  4.49710000e-02  2.03390000e+03  5.50800000e-07  0.00000000e+00
4.06737020e-03  2.54590978e+01  4.50300000e-02  2.01650000e+03  5.85400000e-07  0.00000000e+00
4.10804390e-03  2.54579458e+01  4.50910000e-02  1.99920000e+03  6.22100000e-07  0.00000000e+00
4.14912440e-03  2.54567629e+01  4.51520000e-02  1.98210000e+03  6.61100000e-07  0.00000000e+00
4.19061560e-03  2.54555486e+01  4.52140000e-02  1.96510000e+03  7.02400000e-07  0.00000000e+00
4.23252170e-03  2.54543022e+01  4.52760000e-02  1.94840000e+03  7.46100000e-07  0.00000000e+00
4.27484700e-03  2.54530228e+01  4.53400000e-02  1.93180000e+03  7.92500000e-07  0.00000000e+00
4.31759540e-03  2.54517099e+01  4.54050000e-02  1.91540000e+03  8.41600000e-07  0.00000000e+00
4.36077140e-03  2.54503627e+01  4.54710000e-02  1.89920000e+03  8.93700000e-07  0.00000000e+00
4.40437910e-03  2.54489805e+01  4.55370000e-02  1.88310000e+03  9.48900000e-07  0.00000000e+00
4.44842290e-03  2.54475624e+01  4.56050000e-02  1.86730000e+03  1.00700000e-06  0.00000000e+00
4.49290710e-03  2.54461077e+01  4.56740000e-02  1.85160000e+03  1.06900000e-06  0.00000000e+00
4.53783620e-03  2.54446156e+01  4.57430000e-02  1.83600000e+03  1.13500000e-06  0.00000000e+00
4.58321460e-03  2.54430853e+01  4.58140000e-02  1.82070000e+03  1.20400000e-06  0.00000000e+00
4.62904670e-03  2.54415159e+01  4.58860000e-02  1.80550000e+03  1.27800000e-06  0.00000000e+00
4.67533720e-03  2.54399065e+01  4.59590000e-02  1.79040000e+03  1.35600000e-06  0.00000000e+00
4.72209050e-03  2.54382563e+01  4.60330000e-02  1.77560000e+03  1.43800000e-06  0.00000000e+00
4.76931140e-03  2.54365644e+01  4.61080000e-02  1.76080000e+03  1.52500000e-06  0.00000000e+00
4.81700460e-03  2.54348297e+01  4.61840000e-02  1.74630000e+03  1.61800000e-06  0.00000000e+00
4.86517460e-03  2.54330514e+01  4.62620000e-02  1.73190000e+03  1.71500000e-06  0.00000000e+00
4.91382640e-03  2.54312285e+01  4.63410000e-02  1.71770000e+03  1.81900000e-06  0.00000000e+00
4.96296460e-03  2.54293599e+01  4.64210000e-02  1.70360000e+03  1.92800000e-06  0.00000000e+00
5.01259430e-03  2.54274447e+01  4.65020000e-02  1.68970000e+03  2.04400000e-06  0.00000000e+00
5.06272020e-03  2.54254817e+01  4.65850000e-02  1.67590000e+03  2.16600000e-06  0.00000000e+00
5.11334740e-03  2.54234699e+01  4.66680000e-02  1.66230000e+03  2.29500000e-06  0.00000000e+00
5.16448090e-03  2.54214081e+01  4.67540000e-02  1.64890000e+03  2.43200000e-06  0.00000000e+00
5.21612570e-03  2.54192952e+01  4.68400000e-02  1.63560000e+03  2.57600000e-06  0.00000000e+00
5.26828690e-03  2.54171301e+01  4.69280000e-02  1.62240000e+03  2.72900000e-06  0.00000000e+00
5.32096980e-03  2.54149115e+01  4.70180000e-02  1.60940000e+03  2.89100000e-06  0.00000000e+00
5.37417950e-03  2.54126381e+01  4.71080000e-02  1.59660000e+03  3.06100000e-06  0.00000000e+00
5.42792130e-03  2.54103088e+01  4.72010000e-02  1.58390000e+03  3.24200000e-06  0.00000000e+00
5.48220050e-03  2.54079221e+01  4.72950000e-02  1.57130000e+03  3.43200000e-06  0.00000000e+00
5.53702250e-03  2.54054768e+01  4.73900000e-02  1.55890000e+03  3.63300000e-06  0.00000000e+00
5.59239280e-03  2.54029715e+01  4.74870000e-02  1.54660000e+03  3.84600000e-06  0.00000000e+00
5.64831670e-03  2.54004047e+01  4.75860000e-02  1.53450000e+03  4.07000000e-06  0.00000000e+00
5.70479980e-03  2.53977750e+01  4.76860000e-02  1.52250000e+03  4.30700000e-06  0.00000000e+00
5.76184780e-03  2.53950809e+01  4.77880000e-02  1.51060000e+03  4.55700000e-06  0.00000000e+00
5.81946630e-03  2.53923209e+01  4.78920000e-02  1.49890000e+03  4.82100000e-06  0.00000000e+00
5.87766100e-03  2.53894934e+01  4.79980000e-02  1.48740000e+03  5.10000000e-06  0.00000000e+00
5.93643760e-03  2.53865967e+01  4.81050000e-02  1.47590000e+03  5.39400000e-06  0.00000000e+00
5.99580200e-03  2.53836292e+01  4.82140000e-02  1.46460000e+03  5.70500000e-06  0.00000000e+00
6.05576000e-03  2.53805892e+01  4.83250000e-02  1.45350000e+03  6.03200000e-06  0.00000000e+00
6.11631760e-03  2.53774749e+01  4.84390000e-02  1.44250000e+03  6.37800000e-06  0.00000000e+00
6.17748080e-03  2.53742844e+01  4.85540000e-02  1.43160000e+03  6.74200000e-06  0.00000000e+00
6.23925560e-03  2.53710695e+01  4.86710000e-02  1.42080000e+03  7.12700000e-06  0.00000000e+00
6.30164810e-03  2.53677206e+01  4.87900000e-02  1.41020000e+03  7.53200000e-06  0.00000000e+00
6.36466460e-03  2.53642899e+01  4.89120000e-02  1.39970000e+03  7.96000000e-06  0.00000000e+00
6.42831130e-03  2.53607752e+01  4.90350000e-02  1.38940000e+03  8.41000000e-06  0.00000000e+00
6.49259440e-03  2.53571745e+01  4.91610000e-02  1.37910000e+03  8.88600000e-06  0.00000000e+00
6.55752030e-03  2.53534856e+01  4.92900000e-02  1.36900000e+03  9.38600000e-06  0.00000000e+00
6.62309550e-03  2.53497064e+01  4.94200000e-02  1.35910000e+03  9.91400000e-06  0.00000000e+00
6.68932650e-03  2.53458344e+01  4.95530000e-02  1.34920000e+03  1.04700000e-05  0.00000000e+00
6.75621970e-03  2.53418674e+01  4.96890000e-02  1.33950000e+03  1.10600000e-05  0.00000000e+00
6.82378190e-03  2.53378028e+01  4.98270000e-02  1.33000000e+03  1.16700000e-05  0.00000000e+00
6.89201980e-03  2.53336383e+01  4.99680000e-02  1.32050000e+03  1.23200000e-05  0.00000000e+00
6.96094000e-03  2.53293712e+01  5.01120000e-02  1.31120000e+03  1.30100000e-05  0.00000000e+00
7.03054940e-03  2.53249989e+01  5.02580000e-02  1.30200000e+03  1.37300000e-05  0.00000000e+00
