#  U:    Z = 92;   Atomic weight = 238.0289 g/mol ;    nominal density:   [INLINE] = 1.8920E+01 g/cm3
#         a(barns/atom) = (cm2/g)    3.95257E+02
#         E(eV) (cm2/g) = f2(e/atom)    1.76787E+05
#         24 edges. Edge energies (keV):
# K      1.15606E+02  L I    2.17574E+01  L II   2.09476E+01  L III  1.71663E+01
# M I    5.54800E+00  M II   5.18220E+00  M III  4.30340E+00  M IV   3.72760E+00
# M V    3.55170E+00  N I    1.44080E+00  N II   1.27260E+00  N III  1.04490E+00
# N IV   7.80400E-01  N V    7.37700E-01  N VI   3.91300E-01  N VII  3.80900E-01
# O I    3.23700E-01  O II   2.59300E-01  O III  1.95100E-01  O IV   1.05000E-01
# O V    9.63000E-02  P I    7.07000E-02  P II   4.23000E-02  P III  3.23000E-02
#         Relativistic correction estimate frel (H82,3/5CL) = -2.5771E+00, -1.4940E+00 e/atom
#         Nuclear Thomson correction fNT = -1.9507E-02 e/atom
#    _________________________________________________________________________________________________________
#  Form Factors, Attenuation and Scattering Cross-sections
#  Z=92, E = 0.001 - 1000 keV
#                                                             Attenuation
#    E         f1            f2                     [INLINE] (coh+inc) Coefficient    K       wavelength
#    keV       e/atom       e/atom      cm2/g       cm2/g      cm2/g          cm2/g        nm
1.01000000e-03  2.85631100e+01  3.74260000e-02  6.55100000e+03  3.29200000e-11  0.00000000e+00
1.02010000e-03  2.85630200e+01  3.74320000e-02  6.48720000e+03  3.56500000e-11  0.00000000e+00
1.03030100e-03  2.85629300e+01  3.74390000e-02  6.42400000e+03  3.86100000e-11  0.00000000e+00
1.04060400e-03  2.85628400e+01  3.74450000e-02  6.36140000e+03  4.18000000e-11  0.00000000e+00
1.05101010e-03  2.85627500e+01  3.74510000e-02  6.29950000e+03  4.52600000e-11  0.00000000e+00
1.06152010e-03  2.85626500e+01  3.74580000e-02  6.23820000e+03  4.89900000e-11  0.00000000e+00
1.07213530e-03  2.85625600e+01  3.74640000e-02  6.17750000e+03  5.30200000e-11  0.00000000e+00
1.08285670e-03  2.85624600e+01  3.74700000e-02  6.11740000e+03  5.73800000e-11  0.00000000e+00
1.09368520e-03  2.85623600e+01  3.74770000e-02  6.05790000e+03  6.20900000e-11  0.00000000e+00
1.10462210e-03  2.85622600e+01  3.74840000e-02  5.99900000e+03  6.71700000e-11  0.00000000e+00
1.11566830e-03  2.85621700e+01  3.74900000e-02  5.94070000e+03  7.26600000e-11  0.00000000e+00
1.12682500e-03  2.85620700e+01  3.74970000e-02  5.88290000e+03  7.85800000e-11  0.00000000e+00
1.13809320e-03  2.85619600e+01  3.75040000e-02  5.82570000e+03  8.49800000e-11  0.00000000e+00
1.14947410e-03  2.85618600e+01  3.75110000e-02  5.76910000e+03  9.18800000e-11  0.00000000e+00
1.16096880e-03  2.85617600e+01  3.75180000e-02  5.71310000e+03  9.93300000e-11  0.00000000e+00
1.17257850e-03  2.85616500e+01  3.75250000e-02  5.65760000e+03  1.07400000e-10  0.00000000e+00
1.18430430e-03  2.85615500e+01  3.75320000e-02  5.60260000e+03  1.16000000e-10  0.00000000e+00
1.19614730e-03  2.85614400e+01  3.75390000e-02  5.54820000e+03  1.25400000e-10  0.00000000e+00
1.20810880e-03  2.85613300e+01  3.75470000e-02  5.49430000e+03  1.35500000e-10  0.00000000e+00
1.22018990e-03  2.85612200e+01  3.75540000e-02  5.44100000e+03  1.46400000e-10  0.00000000e+00
1.23239180e-03  2.85611100e+01  3.75620000e-02  5.38820000e+03  1.58100000e-10  0.00000000e+00
1.24471570e-03  2.85610000e+01  3.75690000e-02  5.33590000e+03  1.70800000e-10  0.00000000e+00
1.25716280e-03  2.85608800e+01  3.75770000e-02  5.28420000e+03  1.84400000e-10  0.00000000e+00
1.26973440e-03  2.85607700e+01  3.75840000e-02  5.23290000e+03  1.99100000e-10  0.00000000e+00
1.28243180e-03  2.85606500e+01  3.75920000e-02  5.18220000e+03  2.14900000e-10  0.00000000e+00
1.29525610e-03  2.85605400e+01  3.76000000e-02  5.13200000e+03  2.32000000e-10  0.00000000e+00
1.30820860e-03  2.85604200e+01  3.76080000e-02  5.08220000e+03  2.50400000e-10  0.00000000e+00
1.32129070e-03  2.85603000e+01  3.76160000e-02  5.03300000e+03  2.70200000e-10  0.00000000e+00
1.33450360e-03  2.85601700e+01  3.76240000e-02  4.98420000e+03  2.91500000e-10  0.00000000e+00
1.34784860e-03  2.85600500e+01  3.76320000e-02  4.93600000e+03  3.14500000e-10  0.00000000e+00
1.36132710e-03  2.85599300e+01  3.76410000e-02  4.88820000e+03  3.39200000e-10  0.00000000e+00
1.37494030e-03  2.85598000e+01  3.76490000e-02  4.84080000e+03  3.65800000e-10  0.00000000e+00
1.38868970e-03  2.85596700e+01  3.76580000e-02  4.79400000e+03  3.94500000e-10  0.00000000e+00
1.40257660e-03  2.85595500e+01  3.76660000e-02  4.74760000e+03  4.25300000e-10  0.00000000e+00
1.41660240e-03  2.85594200e+01  3.76750000e-02  4.70170000e+03  4.58500000e-10  0.00000000e+00
1.43076840e-03  2.85592800e+01  3.76840000e-02  4.65620000e+03  4.94200000e-10  0.00000000e+00
1.44507600e-03  2.85591500e+01  3.76930000e-02  4.61120000e+03  5.32600000e-10  0.00000000e+00
1.45952680e-03  2.85590200e+01  3.77010000e-02  4.56660000e+03  5.74000000e-10  0.00000000e+00
1.47412200e-03  2.85588800e+01  3.77110000e-02  4.52250000e+03  6.18400000e-10  0.00000000e+00
1.48886320e-03  2.85587400e+01  3.77200000e-02  4.47880000e+03  6.66200000e-10  0.00000000e+00
1.50375190e-03  2.85586000e+01  3.77290000e-02  4.43550000e+03  7.17600000e-10  0.00000000e+00
1.51878940e-03  2.85584600e+01  3.77380000e-02  4.39270000e+03  7.72800000e-10  0.00000000e+00
1.53397720e-03  2.85583200e+01  3.77480000e-02  4.35030000e+03  8.32200000e-10  0.00000000e+00
1.54931700e-03  2.85581700e+01  3.77570000e-02  4.30830000e+03  8.96000000e-10  0.00000000e+00
1.56481020e-03  2.85580300e+01  3.77670000e-02  4.26680000e+03  9.64500000e-10  0.00000000e+00
1.58045820e-03  2.85578800e+01  3.77770000e-02  4.22560000e+03  1.03800000e-09  0.00000000e+00
1.59626280e-03  2.85577300e+01  3.77860000e-02  4.18490000e+03  1.11700000e-09  0.00000000e+00
1.61222540e-03  2.85575800e+01  3.77960000e-02  4.14450000e+03  1.20200000e-09  0.00000000e+00
1.62834770e-03  2.85574200e+01  3.78070000e-02  4.10460000e+03  1.29400000e-09  0.00000000e+00
1.64463110e-03  2.85572700e+01  3.78170000e-02  4.06500000e+03  1.39200000e-09  0.00000000e+00
1.66107740e-03  2.85571100e+01  3.78270000e-02  4.02590000e+03  1.49700000e-09  0.00000000e+00
1.67768820e-03  2.85569500e+01  3.78370000e-02  3.98710000e+03  1.61000000e-09  0.00000000e+00
1.69446500e-03  2.85567900e+01  3.78480000e-02  3.94870000e+03  1.73100000e-09  0.00000000e+00
1.71140970e-03  2.85566200e+01  3.78590000e-02  3.91070000e+03  1.86100000e-09  0.00000000e+00
1.72852380e-03  2.85564600e+01  3.78690000e-02  3.87310000e+03  2.00100000e-09  0.00000000e+00
1.74580900e-03  2.85562900e+01  3.78800000e-02  3.83590000e+03  2.15100000e-09  0.00000000e+00
1.76326710e-03  2.85561200e+01  3.78910000e-02  3.79900000e+03  2.31100000e-09  0.00000000e+00
1.78089970e-03  2.85559500e+01  3.79020000e-02  3.76250000e+03  2.48400000e-09  0.00000000e+00
1.79870870e-03  2.85557800e+01  3.79140000e-02  3.72630000e+03  2.66900000e-09  0.00000000e+00
1.81669580e-03  2.85556000e+01  3.79250000e-02  3.69060000e+03  2.86700000e-09  0.00000000e+00
1.83486270e-03  2.85554200e+01  3.79360000e-02  3.65510000e+03  3.07900000e-09  0.00000000e+00
1.85321130e-03  2.85552400e+01  3.79480000e-02  3.62000000e+03  3.30700000e-09  0.00000000e+00
1.87174340e-03  2.85550600e+01  3.79600000e-02  3.58530000e+03  3.55100000e-09  0.00000000e+00
1.89046080e-03  2.85548700e+01  3.79720000e-02  3.55090000e+03  3.81300000e-09  0.00000000e+00
1.90936540e-03  2.85546900e+01  3.79840000e-02  3.51690000e+03  4.09300000e-09  0.00000000e+00
1.92845900e-03  2.85545000e+01  3.79960000e-02  3.48320000e+03  4.39400000e-09  0.00000000e+00
1.94774360e-03  2.85543000e+01  3.80080000e-02  3.44980000e+03  4.71600000e-09  0.00000000e+00
1.96722100e-03  2.85541100e+01  3.80200000e-02  3.41670000e+03  5.06000000e-09  0.00000000e+00
1.98689320e-03  2.85539100e+01  3.80330000e-02  3.38400000e+03  5.42900000e-09  0.00000000e+00
2.00676210e-03  2.85537100e+01  3.80460000e-02  3.35160000e+03  5.82500000e-09  0.00000000e+00
2.02682970e-03  2.85535100e+01  3.80580000e-02  3.31960000e+03  6.24800000e-09  0.00000000e+00
2.04709800e-03  2.85533000e+01  3.80710000e-02  3.28780000e+03  6.70100000e-09  0.00000000e+00
2.06756900e-03  2.85530900e+01  3.80850000e-02  3.25640000e+03  7.18600000e-09  0.00000000e+00
2.08824460e-03  2.85528800e+01  3.80980000e-02  3.22530000e+03  7.70500000e-09  0.00000000e+00
2.10912710e-03  2.85526700e+01  3.81110000e-02  3.19450000e+03  8.26000000e-09  0.00000000e+00
2.13021830e-03  2.85524500e+01  3.81250000e-02  3.16400000e+03  8.85400000e-09  0.00000000e+00
2.15152050e-03  2.85522300e+01  3.81380000e-02  3.13380000e+03  9.49000000e-09  0.00000000e+00
2.17303570e-03  2.85520100e+01  3.81520000e-02  3.10390000e+03  1.01700000e-08  0.00000000e+00
2.19476600e-03  2.85517900e+01  3.81660000e-02  3.07430000e+03  1.09000000e-08  0.00000000e+00
2.21671360e-03  2.85515600e+01  3.81810000e-02  3.04500000e+03  1.16700000e-08  0.00000000e+00
2.23888080e-03  2.85513300e+01  3.81950000e-02  3.01590000e+03  1.25000000e-08  0.00000000e+00
2.26126950e-03  2.85510900e+01  3.82090000e-02  2.98720000e+03  1.33900000e-08  0.00000000e+00
2.28388220e-03  2.85508500e+01  3.82240000e-02  2.95880000e+03  1.43400000e-08  0.00000000e+00
2.30672100e-03  2.85506100e+01  3.82390000e-02  2.93060000e+03  1.53600000e-08  0.00000000e+00
2.32978820e-03  2.85503700e+01  3.82540000e-02  2.90270000e+03  1.64400000e-08  0.00000000e+00
2.35308610e-03  2.85501200e+01  3.82690000e-02  2.87510000e+03  1.76000000e-08  0.00000000e+00
2.37661690e-03  2.85498700e+01  3.82840000e-02  2.84780000e+03  1.88400000e-08  0.00000000e+00
2.40038310e-03  2.85496100e+01  3.83000000e-02  2.82080000e+03  2.01600000e-08  0.00000000e+00
2.42438690e-03  2.85493500e+01  3.83150000e-02  2.79400000e+03  2.15700000e-08  0.00000000e+00
2.44863070e-03  2.85490900e+01  3.83310000e-02  2.76750000e+03  2.30800000e-08  0.00000000e+00
2.47311700e-03  2.85488200e+01  3.83470000e-02  2.74120000e+03  2.46900000e-08  0.00000000e+00
2.49784810e-03  2.85485500e+01  3.83640000e-02  2.71520000e+03  2.64100000e-08  0.00000000e+00
2.52282660e-03  2.85482800e+01  3.83800000e-02  2.68950000e+03  2.82400000e-08  0.00000000e+00
2.54805480e-03  2.85480000e+01  3.83970000e-02  2.66400000e+03  3.02000000e-08  0.00000000e+00
2.57353540e-03  2.85477200e+01  3.84130000e-02  2.63880000e+03  3.22900000e-08  0.00000000e+00
2.59927070e-03  2.85474300e+01  3.84300000e-02  2.61380000e+03  3.45200000e-08  0.00000000e+00
2.62526340e-03  2.85471400e+01  3.84480000e-02  2.58910000e+03  3.69000000e-08  0.00000000e+00
2.65151600e-03  2.85468500e+01  3.84650000e-02  2.56460000e+03  3.94300000e-08  0.00000000e+00
2.67803110e-03  2.85465500e+01  3.84820000e-02  2.54040000e+03  4.21400000e-08  0.00000000e+00
2.70481140e-03  2.85462500e+01  3.85000000e-02  2.51640000e+03  4.50200000e-08  0.00000000e+00
2.73185950e-03  2.85459400e+01  3.85180000e-02  2.49260000e+03  4.81000000e-08  0.00000000e+00
2.75917810e-03  2.85456300e+01  3.85360000e-02  2.46910000e+03  5.13800000e-08  0.00000000e+00
2.78676980e-03  2.85453100e+01  3.85550000e-02  2.44580000e+03  5.48700000e-08  0.00000000e+00
2.81463750e-03  2.85449900e+01  3.85730000e-02  2.42280000e+03  5.86000000e-08  0.00000000e+00
2.84278380e-03  2.85446600e+01  3.85920000e-02  2.40000000e+03  6.25600000e-08  0.00000000e+00
2.87121160e-03  2.85443300e+01  3.86110000e-02  2.37740000e+03  6.67900000e-08  0.00000000e+00
2.89992370e-03  2.85439900e+01  3.86310000e-02  2.35500000e+03  7.13000000e-08  0.00000000e+00
2.92892290e-03  2.85436500e+01  3.86500000e-02  2.33290000e+03  7.61000000e-08  0.00000000e+00
2.95821210e-03  2.85433000e+01  3.86700000e-02  2.31100000e+03  8.12100000e-08  0.00000000e+00
2.98779420e-03  2.85429500e+01  3.86900000e-02  2.28930000e+03  8.66500000e-08  0.00000000e+00
3.01767220e-03  2.85425900e+01  3.87100000e-02  2.26780000e+03  9.24500000e-08  0.00000000e+00
3.04784880e-03  2.85422300e+01  3.87300000e-02  2.24650000e+03  9.86200000e-08  0.00000000e+00
3.07832730e-03  2.85418600e+01  3.87510000e-02  2.22540000e+03  1.05200000e-07  0.00000000e+00
3.10911050e-03  2.85414900e+01  3.87720000e-02  2.20460000e+03  1.12200000e-07  0.00000000e+00
3.14020160e-03  2.85411100e+01  3.87930000e-02  2.18400000e+03  1.19600000e-07  0.00000000e+00
3.17160360e-03  2.85407200e+01  3.88140000e-02  2.16350000e+03  1.27500000e-07  0.00000000e+00
3.20331960e-03  2.85403300e+01  3.88360000e-02  2.14330000e+03  1.36000000e-07  0.00000000e+00
3.23535280e-03  2.85399300e+01  3.88580000e-02  2.12330000e+03  1.44900000e-07  0.00000000e+00
3.26770630e-03  2.85395300e+01  3.88800000e-02  2.10350000e+03  1.54400000e-07  0.00000000e+00
3.30038330e-03  2.85391100e+01  3.89030000e-02  2.08380000e+03  1.64600000e-07  0.00000000e+00
3.33338710e-03  2.85387000e+01  3.89250000e-02  2.06440000e+03  1.75400000e-07  0.00000000e+00
3.36672100e-03  2.85382700e+01  3.89480000e-02  2.04520000e+03  1.86800000e-07  0.00000000e+00
3.40038810e-03  2.85378400e+01  3.89720000e-02  2.02610000e+03  1.99000000e-07  0.00000000e+00
3.43439200e-03  2.85374000e+01  3.89950000e-02  2.00730000e+03  2.11900000e-07  0.00000000e+00
3.46873590e-03  2.85369600e+01  3.90190000e-02  1.98860000e+03  2.25700000e-07  0.00000000e+00
3.50342320e-03  2.85365000e+01  3.90430000e-02  1.97020000e+03  2.40300000e-07  0.00000000e+00
3.53845740e-03  2.85360400e+01  3.90670000e-02  1.95190000e+03  2.55800000e-07  0.00000000e+00
3.57384190e-03  2.85355800e+01  3.90920000e-02  1.93380000e+03  2.72300000e-07  0.00000000e+00
3.60958030e-03  2.85351000e+01  3.91170000e-02  1.91580000e+03  2.89900000e-07  0.00000000e+00
3.64567610e-03  2.85346200e+01  3.91420000e-02  1.89810000e+03  3.08500000e-07  0.00000000e+00
3.68213280e-03  2.85341300e+01  3.91680000e-02  1.88050000e+03  3.28300000e-07  0.00000000e+00
3.71895410e-03  2.85336300e+01  3.91940000e-02  1.86310000e+03  3.49200000e-07  0.00000000e+00
3.75614360e-03  2.85331200e+01  3.92200000e-02  1.84590000e+03  3.71500000e-07  0.00000000e+00
3.79370500e-03  2.85326000e+01  3.92470000e-02  1.82890000e+03  3.95200000e-07  0.00000000e+00
3.83164200e-03  2.85320800e+01  3.92740000e-02  1.81200000e+03  4.20300000e-07  0.00000000e+00
3.86995840e-03  2.85315500e+01  3.93010000e-02  1.79530000e+03  4.46900000e-07  0.00000000e+00
3.90865800e-03  2.85310000e+01  3.93280000e-02  1.77880000e+03  4.75200000e-07  0.00000000e+00
3.94774450e-03  2.85304500e+01  3.93560000e-02  1.76240000e+03  5.05200000e-07  0.00000000e+00
3.98722190e-03  2.85298900e+01  3.93840000e-02  1.74620000e+03  5.37000000e-07  0.00000000e+00
4.02709410e-03  2.85293200e+01  3.94130000e-02  1.73020000e+03  5.70700000e-07  0.00000000e+00
4.06736500e-03  2.85287400e+01  3.94420000e-02  1.71430000e+03  6.06500000e-07  0.00000000e+00
4.10803860e-03  2.85281500e+01  3.94710000e-02  1.69860000e+03  6.44400000e-07  0.00000000e+00
4.14911890e-03  2.85275500e+01  3.95010000e-02  1.68310000e+03  6.84700000e-07  0.00000000e+00
4.19061010e-03  2.85269400e+01  3.95310000e-02  1.66770000e+03  7.27300000e-07  0.00000000e+00
4.23251620e-03  2.85263200e+01  3.95610000e-02  1.65240000e+03  7.72500000e-07  0.00000000e+00
4.27484130e-03  2.85256900e+01  3.95920000e-02  1.63730000e+03  8.20400000e-07  0.00000000e+00
4.31758960e-03  2.85250500e+01  3.96230000e-02  1.62240000e+03  8.71200000e-07  0.00000000e+00
4.36076550e-03  2.85243900e+01  3.96550000e-02  1.60760000e+03  9.24900000e-07  0.00000000e+00
4.40437310e-03  2.85237300e+01  3.96870000e-02  1.59300000e+03  9.81900000e-07  0.00000000e+00
4.44841680e-03  2.85230500e+01  3.97190000e-02  1.57850000e+03  1.04200000e-06  0.00000000e+00
4.49290090e-03  2.85223600e+01  3.97520000e-02  1.56420000e+03  1.10600000e-06  0.00000000e+00
4.53782990e-03  2.85216600e+01  3.97850000e-02  1.55000000e+03  1.17400000e-06  0.00000000e+00
4.58320820e-03  2.85209500e+01  3.98190000e-02  1.53590000e+03  1.24600000e-06  0.00000000e+00
4.62904020e-03  2.85202200e+01  3.98530000e-02  1.52200000e+03  1.32100000e-06  0.00000000e+00
4.67533060e-03  2.85194800e+01  3.98870000e-02  1.50830000e+03  1.40200000e-06  0.00000000e+00
4.72208380e-03  2.85187300e+01  3.99220000e-02  1.49460000e+03  1.48700000e-06  0.00000000e+00
4.76930460e-03  2.85179700e+01  3.99580000e-02  1.48110000e+03  1.57700000e-06  0.00000000e+00
4.81699760e-03  2.85171900e+01  3.99940000e-02  1.46780000e+03  1.67200000e-06  0.00000000e+00
4.86516750e-03  2.85164000e+01  4.00300000e-02  1.45460000e+03  1.77300000e-06  0.00000000e+00
4.91381920e-03  2.85155900e+01  4.00670000e-02  1.44150000e+03  1.87900000e-06  0.00000000e+00
4.96295730e-03  2.85147700e+01  4.01040000e-02  1.42860000e+03  1.99200000e-06  0.00000000e+00
5.01258680e-03  2.85139300e+01  4.01420000e-02  1.41570000e+03  2.11100000e-06  0.00000000e+00
5.06271270e-03  2.85130800e+01  4.01800000e-02  1.40310000e+03  2.23700000e-06  0.00000000e+00
5.11333970e-03  2.85122100e+01  4.02190000e-02  1.39050000e+03  2.37000000e-06  0.00000000e+00
5.16447310e-03  2.85113300e+01  4.02580000e-02  1.37810000e+03  2.51100000e-06  0.00000000e+00
5.21611780e-03  2.85104300e+01  4.02980000e-02  1.36580000e+03  2.66000000e-06  0.00000000e+00
5.26827890e-03  2.85095100e+01  4.03380000e-02  1.35360000e+03  2.81700000e-06  0.00000000e+00
5.32096160e-03  2.85085800e+01  4.03790000e-02  1.34160000e+03  2.98300000e-06  0.00000000e+00
5.37417120e-03  2.85076300e+01  4.04210000e-02  1.32970000e+03  3.15900000e-06  0.00000000e+00
5.42791290e-03  2.85066600e+01  4.04630000e-02  1.31790000e+03  3.34500000e-06  0.00000000e+00
5.48219190e-03  2.85056800e+01  4.05050000e-02  1.30620000e+03  3.54100000e-06  0.00000000e+00
5.53701380e-03  2.85046800e+01  4.05480000e-02  1.29460000e+03  3.74800000e-06  0.00000000e+00
5.59238390e-03  2.85036500e+01  4.05920000e-02  1.28320000e+03  3.96600000e-06  0.00000000e+00
5.64830770e-03  2.85026100e+01  4.06360000e-02  1.27190000e+03  4.19700000e-06  0.00000000e+00
5.70479070e-03  2.85015500e+01  4.06810000e-02  1.26070000e+03  4.44100000e-06  0.00000000e+00
5.76183850e-03  2.85004700e+01  4.07270000e-02  1.24960000e+03  4.69800000e-06  0.00000000e+00
5.81945690e-03  2.84993700e+01  4.07730000e-02  1.23860000e+03  4.97000000e-06  0.00000000e+00
5.87765140e-03  2.84982500e+01  4.08200000e-02  1.22780000e+03  5.25700000e-06  0.00000000e+00
5.93642780e-03  2.84971100e+01  4.08670000e-02  1.21700000e+03  5.55900000e-06  0.00000000e+00
5.99579210e-03  2.84959500e+01  4.09150000e-02  1.20640000e+03  5.87800000e-06  0.00000000e+00
6.05574990e-03  2.84947600e+01  4.09640000e-02  1.19590000e+03  6.21500000e-06  0.00000000e+00
6.11630740e-03  2.84935500e+01  4.10130000e-02  1.18540000e+03  6.57000000e-06  0.00000000e+00
6.17747040e-03  2.84923200e+01  4.10630000e-02  1.17510000e+03  6.94500000e-06  0.00000000e+00
6.23924500e-03  2.84910600e+01  4.11140000e-02  1.16500000e+03  7.34000000e-06  0.00000000e+00
6.30163740e-03  2.84897800e+01  4.11660000e-02  1.15490000e+03  7.75700000e-06  0.00000000e+00
6.36465370e-03  2.84884800e+01  4.12180000e-02  1.14490000e+03  8.19600000e-06  0.00000000e+00
6.42830020e-03  2.84871500e+01  4.12710000e-02  1.13500000e+03  8.65900000e-06  0.00000000e+00
6.49258320e-03  2.84858000e+01  4.13250000e-02  1.12520000e+03  9.14700000e-06  0.00000000e+00
6.55750890e-03  2.84844200e+01  4.13790000e-02  1.11560000e+03  9.66100000e-06  0.00000000e+00
6.62308400e-03  2.84830100e+01  4.14350000e-02  1.10600000e+03  1.02000000e-05  0.00000000e+00
6.68931470e-03  2.84815700e+01  4.14910000e-02  1.09650000e+03  1.07700000e-05  0.00000000e+00
6.75620780e-03  2.84801100e+01  4.15480000e-02  1.08720000e+03  1.13800000e-05  0.00000000e+00
6.82376980e-03  2.84786200e+01  4.16050000e-02  1.07790000e+03  1.20100000e-05  0.00000000e+00
6.89200750e-03  2.84771000e+01  4.16640000e-02  1.06870000e+03  1.26800000e-05  0.00000000e+00
6.96092750e-03  2.84755500e+01  4.17230000e-02  1.05960000e+03  1.33800000e-05  0.00000000e+00
7.03053670e-03  2.84739700e+01  4.17840000e-02  1.05070000e+03  1.41200000e-05  0.00000000e+00
